time_s,ecg_mv
0.0,1.0608946779965545
0.002,1.045792177728918
0.004,1.0067409979549609
0.006,0.9457912821635132
0.008,0.8665305623855899
0.01,0.7725632147601891
0.012,0.6675094230137338
0.014,0.5550051784600699
0.016,0.4387022800004669
0.018,0.32226833412361905
0.02,0.2093867549056438
0.022,0.10362791079281118
0.024,0.007078957950876871
0.026,-0.07922303866783742
0.028,-0.1545072913670964
0.03,-0.218265668109768
0.032,-0.27025269251782347
0.034,-0.31048554387233673
0.036,-0.3392440571134853
0.038,-0.3570707228405495
0.04,-0.36477068731191326
0.042,-0.363411752445063
0.044,-0.3543243758165888
0.046,-0.3391016706621838
0.048,-0.3195457670993597
0.05,-0.297013888509194
0.052,-0.27267209575686097
0.054,-0.2475893122965901
0.056,-0.22268545173953522
0.058,-0.19873141785377568
0.06,-0.1763491045643158
0.062,-0.15601139595308453
0.064,-0.13804216625893603
0.066,-0.1226162798776494
0.068,-0.10975959136192888
0.07,-0.09934894542140355
0.072,-0.09111217692262732
0.074,-0.08462811088907925
0.076,-0.07932656250116328
0.078,-0.07466104159618416
0.08,-0.07066513865348377
0.082,-0.06723149928938403
0.084,-0.06423922143287253
0.086,-0.061578861069431015
0.088,-0.05915243224103496
0.09,-0.056873407046154
0.092,-0.05466671563975175
0.094,-0.05246874623328579
0.096,-0.0502273450947078
0.098,-0.04790181654846339
0.1,-0.04546292297549218
0.102,-0.04289265170341211
0.104,-0.04018291191669626
0.106,-0.03733644912675747
0.108,-0.03436746514629378
0.11,-0.031301619844497294
0.112,-0.028134647326884858
0.114,-0.02482897664354265
0.116,-0.021374306900756153
0.118,-0.017761042581271244
0.12,-0.013980272962063871
0.122,-0.010023772114340222
0.124,-0.00588399890353654
0.126,-0.0015540969893191071
0.128,0.002972105174415693
0.13,0.007700094339541271
0.132,0.012634672463701093
0.134,0.01777995671030837
0.136,0.023139379448546382
0.138,0.02871568825336808
0.14,0.034510945905496485
0.142,0.04052653039142463
0.144,0.04676313490341512
0.146,0.05322076783950068
0.148,0.05989875280348409
0.15,0.06679572860493763
0.152,0.0739096492592039
0.154,0.08123778398739483
0.156,0.08877671721639306
0.158,0.09652234857885048
0.16,0.10447401435306072
0.162,0.11267984011803443
0.164,0.12113333483672767
0.166,0.12980683173228955
0.168,0.13867307298299716
0.17,0.14770520972225448
0.172,0.15687680203859314
0.174,0.16616181897567206
0.176,0.1755346385322773
0.178,0.18497004766232283
0.18,0.19444324227484938
0.182,0.20392982723402533
0.184,0.2134058163591466
0.186,0.22284763242463584
0.188,0.23223210716004375
0.19,0.24153648125004798
0.192,0.25073840433445377
0.194,0.2598159350081936
0.196,0.2687475408213273
0.198,0.27751209827904205
0.2,0.28608889284165245
0.202,0.2944575554830557
0.204,0.30259742020096664
0.206,0.31048780014826327
0.208,0.3181084127846145
0.21,0.3254393845248164
0.212,0.33246125073879296
0.214,0.3391549557515949
0.216,0.34550185284340024
0.218,0.351483704249515
0.22,0.3570826811603721
0.222,0.3622813637215321
0.224,0.3670627410336823
0.226,0.3714102111526382
0.228,0.37530758108934215
0.23,0.3787390668098641
0.232,0.3816892932354009
0.234,0.3841432942422776
0.236,0.38608651266194577
0.238,0.38750480028098466
0.24,0.388384417841101
0.242,0.38871203503912877
0.244,0.38847473052702947
0.246,0.3876599919118917
0.248,0.38625222397551645
0.25,0.38420256516690776
0.252,0.3815227910414773
0.254,0.37824364223863616
0.256,0.37439536319949485
0.258,0.37000770216686296
0.26,0.36510991118524866
0.262,0.359730746100859
0.264,0.35389846656160046
0.266,0.34764083601707807
0.268,0.340985121718596
0.27,0.33395809471915716
0.272,0.3265860298734635
0.274,0.3188947058379162
0.276,0.31090940507061454
0.278,0.30265491383135773
0.28,0.2941555221816433
0.282,0.285435023984668
0.284,0.27651671690532753
0.286,0.26742340241021606
0.288,0.2581773857676275
0.29,0.2488004760475543
0.292,0.23931398612168742
0.294,0.22973873266341718
0.296,0.22009503614783307
0.298,0.2104027208517232
0.3,0.20068111485357465
0.302,0.19094906380907012
0.304,0.18122522191085383
0.306,0.17152804531353252
0.308,0.16187550643371063
0.31,0.15228508148969203
0.312,0.14277375050147934
0.314,0.1333579972907743
0.316,0.1240538094809777
0.318,0.11487667849718881
0.32,0.10584159956620649
0.322,0.0969630717165277
0.324,0.08825509777834906
0.326,0.07973118438356595
0.328,0.07140434196577257
0.33,0.06328708476026203
0.332,0.05539143080402653
0.334,0.0477289019357572
0.336,0.040310523795843795
0.338,0.0331468258263757
0.34,0.026247841271140455
0.342,0.019623107175625102
0.344,0.013281664387015174
0.346,0.007231020171320878
0.348,0.0014675555066988766
0.35,-0.004017112641620043
0.352,-0.009231080385570214
0.354,-0.01418232726809079
0.356,-0.0188787162631238
0.358,-0.023327993775615376
0.36,-0.027537789641515306
0.362,-0.031515617127777146
0.364,-0.03526887293235827
0.366,-0.038804837184219586
0.368,-0.04213067344332597
0.37,-0.04525342870064591
0.372,-0.048180033378151736
0.374,-0.0509173013288194
0.376,-0.05347192983662875
0.378,-0.055850499616563194
0.38,-0.05805947481461002
0.382,-0.06010520300776016
0.384,-0.06199391520400845
0.386,-0.06373172584235336
0.388,-0.06532463279279713
0.39,-0.06677851735634557
0.392,-0.06809914426500857
0.394,-0.0692921616817994
0.396,-0.07036310120073543
0.398,-0.07131737784683748
0.4,-0.07216029007613041
0.402,-0.07289702435525314
0.404,-0.07353290482005762
0.406,-0.07407352443976974
0.408,-0.07452439328273397
0.41,-0.07489090488237236
0.412,-0.07517833620311114
0.414,-0.07539184764037983
0.416,-0.07553648302061194
0.418,-0.0756171696012448
0.42,-0.07563871807071913
0.422,-0.07560582254847985
0.424,-0.07552306058497536
0.426,-0.07539489316165765
0.428,-0.07522566469098295
0.43,-0.07501960301641078
0.432,-0.07478081941240453
0.434,-0.07451330858443132
0.436,-0.0742209486689621
0.438,-0.07390750123347166
0.44,-0.07357661127643818
0.442,-0.07323180722734385
0.444,-0.07287462592124692
0.446,-0.07250312431448712
0.448,-0.07211867280565526
0.45,-0.07172275957801479
0.452,-0.0713168291213905
0.454,-0.07090228223216813
0.456,-0.07048047601329507
0.458,-0.07005272387427948
0.46,-0.06962029553119115
0.462,-0.06918441700666102
0.464,-0.0687462706298811
0.466,-0.06830699503660488
0.468,-0.06786768516914689
0.47,-0.06742939227638312
0.472,-0.0669931239137506
0.474,-0.06655984394324772
0.476,-0.06613047253343421
0.478,-0.06570588615943074
0.48,-0.06528691760291953
0.482,-0.06487435595214396
0.484,-0.06446894660190851
0.486,-0.064071391253579
0.488,-0.06368234791508263
0.49,-0.06330243090090773
0.492,-0.06293221083210382
0.494,-0.06257221463628167
0.496,-0.06222292554761343
0.498,-0.06188478310683243
0.5,-0.06155818316123311
0.502,-0.0612434768086683
0.504,-0.06094068068707282
0.506,-0.06064908259246508
0.508,-0.06036782800352894
0.51,-0.060096018705509235
0.512,-0.05983271279021219
0.514,-0.05957692465600542
0.516,-0.05932762500781754
0.518,-0.059083740857138536
0.52,-0.05884415552201966
0.522,-0.058607708627073374
0.524,-0.05837319610347335
0.526,-0.05813937018895453
0.528,-0.05790493942781314
0.53,-0.0576685686709066
0.532,-0.05742887907565356
0.534,-0.057184448106034076
0.536,-0.056933809532589266
0.538,-0.05667545343242142
0.54,-0.05640782618919442
0.542,-0.05612969361058944
0.544,-0.055851854276120154
0.546,-0.055573737615216195
0.548,-0.055286598017241534
0.55,-0.05498144024279128
0.552,-0.054649019423691506
0.554,-0.05427984106299932
0.556,-0.05386416103500296
0.558,-0.053391985585221485
0.56,-0.05285307133040507
0.562,-0.05223692525853486
0.564,-0.05153280472882314
0.566,-0.050729717471713134
0.568,-0.049816421588879
0.57,-0.04878142555322608
0.572,-0.04761298820889051
0.574,-0.046299118771239635
0.576,-0.04482757682687179
0.578,-0.0431858723336164
0.58,-0.04136126562053348
0.582,-0.03934076738791456
0.584,-0.03711113870728198
0.586,-0.034658891021389124
0.588,-0.03197028614422032
0.59,-0.029031336260991067
0.592,-0.02582780392814773
0.594,-0.022345202073367876
0.596,-0.01856879399555973
0.598,-0.014483593364862813
0.6,-0.010074364222647876
0.602,-0.005325620982694644
0.604,-0.00022189331022720582
0.606,0.005251525142890992
0.608,0.011109327550927505
0.61,0.017366451030760382
0.612,0.024038082328036777
0.614,0.03113965781717283
0.616,0.03870151635477126
0.618,0.04686614894447811
0.62,0.0555968352647637
0.622,0.06480894703295612
0.624,0.07442048193766808
0.626,0.08435206363879713
0.628,0.09452694176752537
0.63,0.10487099192631995
0.632,0.11531271568893293
0.634,0.12578324060040094
0.636,0.13621632017704519
0.638,0.14654833390647207
0.64,0.15671828724757272
0.642,0.16666781163052272
0.644,0.17634116445678286
0.646,0.18568522909909846
0.648,0.1946495149014998
0.65,0.2031861571793018
0.652,0.2112499172191043
0.654,0.21879818227879172
0.656,0.22579096558753337
0.658,0.23219090634578385
0.66,0.23796326972528145
0.662,0.24307594686905035
0.664,0.2474994548913987
0.666,0.25120693687792023
0.668,0.25417416188549263
0.67,0.25637952494227906
0.672,0.257804047047727
0.674,0.2584313751725691
0.676,0.2582477822588224
0.678,0.2572421672197889
0.68,0.25540605494005575
0.682,0.25273359627549435
0.684,0.24922156805326098
0.686,0.24486937307179715
0.688,0.23967904010082866
0.69,0.23366488033161023
0.692,0.22691620129908469
0.694,0.21952882898941053
0.696,0.21159112412509273
0.698,0.20318738952016113
0.7,0.19439787008017045
0.702,0.18529875280219998
0.704,0.17596231367941761
0.706,0.16645768959120044
0.708,0.15685031400699714
0.71,0.14720156324247805
0.712,0.13756875570483793
0.714,0.12800515189279665
0.716,0.11855995439659907
0.718,0.10927830789801465
0.72,0.10020129917033792
0.722,0.09136595707838807
0.724,0.08280525257850944
0.726,0.07454809871857093
0.728,0.06661935063796647
0.73,0.059039805567614984
0.732,0.05182620282995984
0.734,0.04499122383896987
0.736,0.03854349210013816
0.738,0.03248757321048285
0.74,0.026823974858547327
0.742,0.02154914682439941
0.744,0.016655480979631723
0.746,0.012131311287362322
0.748,0.008001765464990665
0.75,0.00435189584855749
0.752,0.0010918817434801779
0.754,-0.00188198888003073
0.756,-0.004673450242751927
0.758,-0.007386258756447505
0.76,-0.01012419302386897
0.762,-0.012991053838755201
0.764,-0.01609066418583225
0.766,-0.019526869240813725
0.768,-0.023403536370400383
0.77,-0.02782455513228057
0.772,-0.032893837275129685
0.774,-0.03871531673861078
0.776,-0.04539294965337406
0.778,-0.05303071434105705
0.78,-0.061732611314284744
0.782,-0.07160266327666945
0.784,-0.0827449151228107
0.786,-0.09526343393829563
0.788,-0.10926230899969852
0.79,-0.12521250234008846
0.792,-0.14298738711704848
0.794,-0.16083054288637272
0.796,-0.1770917139564567
0.798,-0.1902752775355701
0.8,-0.1990402437318564
0.802,-0.20220025555333287
0.804,-0.19872362231025953
0.806,-0.18773364450362684
0.808,-0.16850846239093517
0.81,-0.1404808355374759
0.812,-0.10323815502086817
0.814,-0.05652244481860518
0.816,-0.00023036180805358943
0.818,0.06558680423354547
0.82,0.1407231306290774
0.822,0.22481806180155417
0.824,0.31735640927411224
0.826,0.4176683516700161
0.828,0.5249341665736968
0.83,0.6362785223059528
0.832,0.7459026458059594
0.834,0.8484967189658515
0.836,0.9395271565407555
0.838,1.0152366061487539
0.84,1.0726439482709114
0.842,1.1095442962512663
0.844,1.1245089962968329
0.846,1.116885627477599
0.848,1.0867980017265273
0.85,1.0351461638395567
0.852,0.9636063914755979
0.854,0.8745809216388564
0.856,0.7720642767999992
0.858,0.6607004096738922
0.86,0.5446703459798361
0.862,0.4276828993218003
0.864,0.312974671188424
0.866,0.20331005095301516
0.868,0.10098121587355094
0.87,0.007808131092677976
0.872,-0.0748614503622875
0.874,-0.1461519875793605
0.876,-0.20566015176188707
0.878,-0.25337582331697484
0.88,-0.2882070560379334
0.882,-0.3110030985839233
0.884,-0.32342960752534644
0.886,-0.3270502939841388
0.888,-0.3233269236337705
0.89,-0.3136193166992458
0.892,-0.2991853479571033
0.894,-0.2811809467354152
0.896,-0.26066009691378855
0.898,-0.23857483692336415
0.9,-0.21577525974681655
0.902,-0.19300951291835564
0.904,-0.1709238012446425
0.906,-0.15006243986723
0.908,-0.13086785072859153
0.91,-0.11368051233590999
0.912,-0.09873895774790231
0.914,-0.08617977457482036
0.916,-0.07602691756920743
0.918,-0.06779674454759298
0.92,-0.06105989246451826
0.922,-0.05557804860203405
0.924,-0.05113124076960542
0.926,-0.047517837304111896
0.928,-0.044554547069847086
0.93,-0.04207641945851903
0.932,-0.039936844389250103
0.934,-0.03800755230857669
0.936,-0.03617861419045
0.938,-0.03435844153623496
0.94,-0.03247378637471133
0.942,-0.0304697412620727
0.944,-0.028309739281927423
0.946,-0.02597555404529783
0.948,-0.023467299690620544
0.95,-0.020803430883746803
0.952,-0.01802074281794181
0.954,-0.015172928900844864
0.956,-0.012223045563523258
0.958,-0.00911942047626265
0.96,-0.005853579471221693
0.962,-0.002417567046475621
0.964,0.0011960536339823621
0.966,0.00499420074024225
0.968,0.00898327377647665
0.97,0.01316915358094084
0.972,0.01755720232597311
0.974,0.022152263517994465
0.976,0.026958661997508446
0.978,0.031980203939101504
0.98,0.03722017685144304
0.982,0.04268134957728491
0.984,0.048365972293461935
0.986,0.05427577651089163
0.988,0.06041197507457417
0.99,0.06677526216359285
0.992,0.07336581329111337
0.994,0.08018328530438423
0.996,0.087226816384737
0.998,0.09449502604758551
1.0,0.10198601514242694
1.002,0.10972230392239254
1.004,0.11772979569314623
1.006,0.12598846498679067
1.008,0.1344779440966499
1.01,0.1431779219836169
1.012,0.15206812653346213
1.014,0.16112831402267355
1.016,0.17033826895419715
1.018,0.17967780405743677
1.02,0.1891267602882541
1.022,0.19866500682896876
1.024,0.20827244108835866
1.026,0.21792898870165922
1.028,0.22761460353056423
1.03,0.23730926766322494
1.032,0.24699299141425113
1.034,0.25664581332471004
1.036,0.2662478001621271
1.038,0.2757790469204855
1.04,0.28521967682022664
1.042,0.29454984130824996
1.044,0.30374972005791223
1.046,0.31279952096902885
1.048,0.3216794801678728
1.05,0.3303698620071751
1.052,0.3388509590661247
1.054,0.3471030921503688
1.056,0.35510661029201174
1.058,0.362841890749617
1.06,0.37028933900820493
1.062,0.3774293887792543
1.064,0.3842425020007019
1.066,0.3907091688369424
1.068,0.39680990767882834
1.07,0.40252526514367
1.072,0.4078358160752361
1.074,0.4127221635437533
1.076,0.4171649388459057
1.078,0.4211448015048353
1.08,0.4246424392701433
1.082,0.42763856811788703
1.084,0.43011393225058303
1.086,0.4320493040972055
1.088,0.43342548431318656
1.09,0.43422330178041624
1.092,0.43441443448674827
1.094,0.4339940025236492
1.096,0.4329810331671193
1.098,0.4313946428867552
1.1,0.4292540215616317
1.102,0.42657843248030025
1.104,0.4233872119261303
1.106,0.4196996786136726
1.108,0.41553502015329896
1.11,0.4109124696542807
1.112,0.40585133363536713
1.114,0.4003709920247839
1.116,0.3944908981602341
1.118,0.3882305787888982
1.12,0.3816096340674328
1.122,0.3746477375619726
1.124,0.36736463624812915
1.126,0.35978015051099044
1.128,0.3519141741451223
1.13,0.34378667435456745
1.132,0.3354176917528452
1.134,0.32682734036295263
1.136,0.31803580761736355
1.138,0.30906335435802873
1.14,0.2999303148363764
1.142,0.29065709671331147
1.144,0.281264181059216
1.146,0.27177212235394965
1.148,0.26220154848684846
1.15,0.25257316075672576
1.152,0.24290773387187212
1.154,0.23322611595005646
1.156,0.22354922851852077
1.158,0.2138980665139883
1.16,0.20429369828265767
1.162,0.19475726558020462
1.164,0.1853099835717823
1.166,0.17597314083202076
1.168,0.16676809934502682
1.17,0.1577162945043852
1.172,0.14883923511315683
1.174,0.1401585033838802
1.176,0.13169575493857064
1.178,0.12347271880872067
1.18,0.11551114789697675
1.182,0.10781276247968628
1.184,0.10036762162585032
1.186,0.09317502783196581
1.188,0.08623404252391077
1.19,0.07954348605694453
1.192,0.07310193771570837
1.194,0.06690773571422458
1.196,0.060958977195897386
1.198,0.055253518233511975
1.2,0.049788973829235195
1.202,0.04456271791461548
1.204,0.03957188335304265
1.206,0.03481343450420434
1.208,0.03028435724736519
1.21,0.025981433817273362
1.212,0.021901121040576284
1.214,0.018039614421185665
1.216,0.014392868392394457
1.218,0.01095659631687719
1.22,0.007726270486689751
1.222,0.004697122123269639
1.224,0.0018641413774357768
1.226,-0.0007779226706115926
1.228,-0.0032345620112905144
1.23,-0.005511509705637779
1.232,-0.007614739885308457
1.234,-0.009550467752576463
1.236,-0.011325149580333918
1.238,-0.012945482712091883
1.24,-0.014418405561979576
1.242,-0.015751097614744927
1.244,-0.016950979425754294
1.246,-0.018025712620992562
1.248,-0.018983199897063416
1.25,-0.019831585021188747
1.252,-0.020579252831209115
1.254,-0.021234829235583542
1.256,-0.02180718121338973
1.258,-0.02230541681432377
1.26,-0.022738885158700352
1.262,-0.023115239954197193
1.264,-0.023429781435175975
1.266,-0.02368431998582237
1.268,-0.023882434797908764
1.27,-0.02402758880379821
1.272,-0.024123128676444002
1.274,-0.024172284829389955
1.276,-0.02417817141677037
1.278,-0.02414378633330974
1.28,-0.024072011214323327
1.282,-0.02396561143571662
1.284,-0.02382723611398549
1.286,-0.023659418106216575
1.288,-0.023464574010086368
1.29,-0.023245004163862312
1.292,-0.023002892646402102
1.294,-0.022740307277153784
1.296,-0.02245919961615604
1.298,-0.022161404964037724
1.3,-0.021848642362018316
1.302,-0.021522514591907602
1.304,-0.02118450817610594
1.306,-0.020835989957521627
1.308,-0.020478190209921702
1.31,-0.020112215479913598
1.312,-0.019739056043152584
1.314,-0.019359585915884346
1.316,-0.01897456285494486
1.318,-0.018584628357760643
1.32,-0.018190307662348613
1.322,-0.017792009747316186
1.324,-0.017390027331861065
1.326,-0.016984536875771446
1.328,-0.01657559857942614
1.33,-0.01616315638379412
1.332,-0.015747037970434846
1.334,-0.01532695476149841
1.336,-0.014902501919725118
1.338,-0.014473158348445748
1.34,-0.014038002463335555
1.342,-0.01359265947981606
1.344,-0.013137426322040801
1.346,-0.01267419758818765
1.348,-0.01220468702938626
1.35,-0.011730427549718075
1.352,-0.011252771206216436
1.354,-0.010772889208866439
1.356,-0.010291771920605177
1.358,-0.009810228857321388
1.36,-0.009328888687855811
1.362,-0.008848199234000913
1.364,-0.008368427470501098
1.366,-0.007889659525052488
1.368,-0.0074118006783031876
1.37,-0.006934575363852991
1.372,-0.00645752716825357
1.374,-0.0059800188310086275
1.376,-0.005501232244573441
1.378,-0.005020168454355173
1.38,-0.004535647658712963
1.382,-0.004046309208957741
1.384,-0.0035506116093522227
1.386,-0.0030468325171109233
1.388,-0.002533068742400268
1.39,-0.0020072362483386664
1.392,-0.0014670701509959692
1.394,-0.000910124719394256
1.396,-0.00033377337550726405
1.398,0.00026479130573933175
1.4,0.0008885575964681031
1.402,0.0015406946158499548
1.404,0.002224552330103517
1.406,0.002943612595758755
1.408,0.003701042628903399
1.41,0.004499904062169841
1.412,0.005343512517909923
1.414,0.006235478481833314
1.416,0.007179602547764815
1.418,0.008179866156577544
1.42,0.009240431596192488
1.422,0.0103622939002341
1.424,0.011525739075713972
1.426,0.012747973297730912
1.428,0.014054161238710654
1.43,0.015468284908708961
1.432,0.017013143655412594
1.434,0.018710354164138406
1.436,0.02058035045783408
1.438,0.02264238389707764
1.44,0.024914523180077655
1.442,0.02741365434267338
1.444,0.030155480758334192
1.446,0.033154523138160565
1.448,0.036424119530882856
1.45,0.039976425322862406
1.452,0.04382241323809085
1.454,0.047971873338190404
1.456,0.05243341302241374
1.458,0.05721445702764413
1.46,0.06232124742839529
1.462,0.06775884363681156
1.464,0.0735311224026677
1.466,0.0796407778133689
1.468,0.08608932129395104
1.47,0.09287708160708052
1.472,0.10000320485305424
1.474,0.10746565446979926
1.476,0.11526121123287361
1.478,0.12338547325546595
1.48,0.13183285598839475
1.482,0.1405965922201097
1.484,0.1497079875124496
1.486,0.15916911101708112
1.488,0.16889192957431856
1.49,0.1787909524185814
1.492,0.18878403297526736
1.494,0.19879236886075305
1.496,0.20874050188239296
1.498,0.21855631803852027
1.5,0.2281710475184466
1.502,0.23751926470246207
1.504,0.24653888816183503
1.506,0.25517121313604807
1.508,0.26336149755180954
1.51,0.2710588980878558
1.512,0.27821593525635424
1.514,0.2847884737604506
1.516,0.290735722494269
1.518,0.29602023454291204
1.52,0.3006079071824608
1.522,0.30446798187997465
1.524,0.30757304429349147
1.526,0.30989902427202765
1.528,0.31142519585557776
1.53,0.31213417727511494
1.532,0.3120119309525907
1.534,0.311047763500935
1.536,0.30923432572405624
1.538,0.3065676126168411
1.54,0.3030469633651548
1.542,0.29867506134584104
1.544,0.29345685409351424
1.546,0.28741495976867326
1.548,0.28062790219680406
1.55,0.2731791827772734
1.552,0.26514925566150116
1.554,0.2566155277529604
1.556,0.2476523587071769
1.558,0.2383310609317298
1.56,0.22871989958625114
1.562,0.21888409258242594
1.564,0.20888581058399244
1.566,0.19878417700674192
1.568,0.18863526801851868
1.57,0.17849211253921987
1.572,0.16840469224079588
1.574,0.15841994154725028
1.576,0.1485817476346393
1.578,0.13893095043107284
1.58,0.12950534261671293
1.582,0.12033966962377568
1.584,0.11146562963652942
1.586,0.10291187359129599
1.588,0.09470400517645007
1.59,0.08686458083241969
1.592,0.07941310975168545
1.594,0.07236605387878149
1.596,0.06573682791029453
1.598,0.05953579929486457
1.6,0.053879737741257226
1.602,0.048940245756805084
1.604,0.04460133600519065
1.606,0.0407431618320973
1.608,0.0372509006755423
1.61,0.034014619343330096
1.612,0.03092971989336732
1.614,0.027896871921372364
1.616,0.024822056462660037
1.618,0.021616635089110627
1.62,0.01819735093248298
1.622,0.014486328684414778
1.624,0.010411074596421828
1.626,0.005904476479898817
1.628,0.0009048037061187052
1.63,-0.004644292793766616
1.632,-0.010793780528726963
1.634,-0.01758924544785362
1.636,-0.0250708919403591
1.638,-0.033273542835577596
1.64,-0.042226639402964485
1.642,-0.0519542413520969
1.644,-0.06247502683267322
1.646,-0.07380229243451315
1.648,-0.08594395318755821
1.65,-0.09890254256187093
1.652,-0.11267521246763564
1.654,-0.12726020102171098
1.656,-0.14238456428630517
1.658,-0.15638212372916163
1.66,-0.1674419291276048
1.662,-0.1739615528409502
1.664,-0.17454708981050485
1.666,-0.1680131575595681
1.668,-0.15338289619342813
1.67,-0.129887968399366
1.672,-0.09696855944665382
1.674,-0.05427337718655486
1.676,-0.001659652052323793
1.678,0.06080686294079362
1.68,0.13285189219556007
1.682,0.213992637532747
1.684,0.30353777819113414
1.686,0.4005874708275114
1.688,0.504033349516676
1.69,0.6126211387672494
1.692,0.7237003846320645
1.694,0.8316764744845098
1.696,0.9313716019229361
1.698,1.0184080185739042
1.7,1.0892080340921848
1.702,1.140994016160757
1.704,1.1717883904908106
1.706,1.1804136415082866
1.708,1.1664924341911067
1.71,1.130447754387814
1.712,1.0735026799635528
1.714,0.9976803468116742
1.716,0.905718086688758
1.718,0.801243586223065
1.72,0.68870773244104
1.722,0.5721685028624719
1.724,0.45521924864875685
1.726,0.3409886946029
1.728,0.23214093916951453
1.73,0.13087545443482107
1.732,0.03892708612664926
1.734,-0.04243394638556439
1.736,-0.11240205009077345
1.738,-0.17063625833632542
1.74,-0.21726023082795812
1.742,-0.2519558953138061
1.744,-0.27416497682460544
1.746,-0.28563999929174044
1.748,-0.28808944371210893
1.75,-0.2831011103181996
1.752,-0.2721421185780931
1.754,-0.2565589071954611
1.756,-0.23757723410956677
1.758,-0.21630217649526456
1.76,-0.19371813076300054
1.762,-0.1706888125588119
1.764,-0.14795725676432747
1.766,-0.12614581749676715
1.768,-0.10575616810894241
1.77,-0.0871693011892562
1.772,-0.07064552856170266
1.774,-0.05632448128586742
1.776,-0.04422510965692718
1.778,-0.03424568320565084
1.78,-0.026163790698398064
1.782,-0.019636340137119398
1.784,-0.014217000565149206
1.786,-0.00961772425485424
1.788,-0.005718058018998034
1.79,-0.002407851426582128
1.792,0.000416005799068234
1.794,0.0028495837803050265
1.796,0.004981912485156315
1.798,0.006894981727326931
1.8,0.008663741166198384
1.802,0.010356100306828698
1.804,0.012032928499952567
1.806,0.013748054933506535
1.808,0.015548190935535614
1.81,0.017472740179117364
1.812,0.019554008664671982
1.814,0.021817285232199096
1.816,0.02428090515435317
1.818,0.026956183927103736
1.82,0.029847396892097148
1.822,0.03295177923665615
1.824,0.036259525993780344
1.826,0.03975379204214573
1.828,0.04341069210610497
1.83,0.04719930075568757
1.832,0.051106890199048884
1.834,0.055194889901063075
1.836,0.05947623253952306
1.838,0.06395797960528386
1.84,0.06864630756149973
1.842,0.07354650784362421
1.844,0.07866298685941023
1.846,0.08399926598890983
1.848,0.08955798158447459
1.85,0.09534088497075525
1.852,0.10134884244470177
1.854,0.10758183527556357
1.856,0.11403895970488917
1.858,0.12071842694652646
1.86,0.12761756318662282
1.862,0.1347328095836244
1.864,0.1420597222682774
1.866,0.1495929723436267
1.868,0.15732634588501668
1.87,0.16525274394009096
1.872,0.17336418252879257
1.874,0.18165179264336356
1.876,0.19010582024834574
1.878,0.19871562628057976
1.88,0.20746968664920593
1.882,0.21635559223566359
1.884,0.22536022414216914
1.886,0.23449935833594454
1.888,0.24376849576341125
1.89,0.2531364786457923
1.892,0.26257281648269304
1.894,0.27204768605210217
1.896,0.28153193141039085
1.898,0.29099706389231333
1.9,0.3004152621110064
1.902,0.3097593719579897
1.904,0.31900290660316594
1.906,0.32812004649482046
1.908,0.3370857284196364
1.91,0.3458760587859546
1.912,0.3544679872449127
1.914,0.36283913091412734
1.916,0.3709677741895989
1.918,0.37883286874571026
1.92,0.38641403353522585
1.922,0.3936915547892962
1.924,0.40064638601745156
1.926,0.40726014800760596
1.928,0.41351512882605646
1.93,0.41939428381748256
1.932,0.4248812356049468
1.934,0.42996027408989446
1.936,0.43461635645215385
1.938,0.43883510714993595
1.94,0.44260281791983425
1.942,0.44590644777682537
1.944,0.44873362301426895
1.946,0.4510726372039069
1.948,0.4529124511958643
1.95,0.4542426931186489
1.952,0.4550536583791513
1.954,0.4553363096626452
1.956,0.45508227693278674
1.958,0.45428385743161487
1.96,0.45293401567955166
1.962,0.45101546083804517
1.964,0.44843844679964306
1.966,0.4452129103133031
1.968,0.44137369589368103
1.97,0.4369549776925352
1.972,0.4319902594987291
1.974,0.4265123747382289
1.976,0.4205534864741051
1.978,0.4141450874065315
1.98,0.4073179998727858
1.982,0.40010237584724995
1.984,0.39252769694140865
1.986,0.3846227744038513
1.988,0.37641574912027054
1.99,0.36793409161346263
1.992,0.359204602043328
1.994,0.3502534102068705
1.996,0.34110597553819777
1.998,0.33178708710852156
2.0,0.3223208636261568
2.002,0.3127307534365213
2.004,0.303039534522141
2.006,0.2932693145026381
2.008,0.2834414821800979
2.01,0.27357629306864306
2.012,0.2636930752981621
2.014,0.2538104833082312
2.016,0.24394647147725682
2.018,0.23411828045073563
2.02,0.22434247707522517
2.022,0.2146349578343785
2.024,0.20501094884896082
2.026,0.19548500587683246
2.028,0.18607101431296608
2.03,0.17678218918942937
2.032,0.16763107517540288
2.034,0.15862954657716158
2.036,0.14978880733809333
2.038,0.14111939103868112
2.04,0.1326311608965196
2.042,0.12433330976629975
2.044,0.11623436013982329
2.046,0.10834216414598907
2.048,0.10066390355080616
2.05,0.09320608975738248
2.052,0.08597456380592969
2.054,0.078974496373768
2.056,0.07221038777531502
2.058,0.0656860679620985
2.06,0.059404696522743855
2.062,0.05336876268298557
2.064,0.047580085305656834
2.066,0.04203981289069996
2.068,0.03674842357515549
2.07,0.03170572513317272
2.072,0.026910854976000275
2.074,0.02236228015199479
2.076,0.01805779734661196
2.078,0.013995783904970993
2.08,0.010175848728825841
2.082,0.006589561846030929
2.084,0.003227866359097821
2.086,8.18816429297908e-05
2.088,-0.0028570966551834907
2.09,-0.0055975966155606596
2.092,-0.008147970046133962
2.094,-0.01051639248244408
2.096,-0.012710863187645086
2.098,-0.014739205152499622
2.1,-0.016609065095383634
2.102,-0.01832791346228193
2.104,-0.019903044426792037
2.106,-0.021341575890121006
2.108,-0.02265044625974697
2.11,-0.02383636056466016
2.112,-0.024905798548881364
2.114,-0.02586506209326457
2.116,-0.026720276806276096
2.118,-0.027477392023991926
2.12,-0.028142180810100326
2.122,-0.028720239955899195
2.124,-0.029216989980298716
2.126,-0.029637675129818877
2.128,-0.02998736337859141
2.13,-0.030270946428358723
2.132,-0.030493139708474143
2.134,-0.030658482375902116
2.136,-0.030771337315217993
2.138,-0.030835891138607886
2.14,-0.030856154185869306
2.142,-0.030835960524410344
2.144,-0.030778967949250433
2.146,-0.030688657983019427
2.148,-0.030568335875958683
2.15,-0.03042113060592022
2.152,-0.030249994878367173
2.154,-0.03005770512637347
2.156,-0.02984686151062428
2.158,-0.02961988791941546
2.16,-0.02937903196865406
2.162,-0.02912636500185784
2.164,-0.02886378209015579
2.166,-0.028593002032287776
2.168,-0.028315567354604516
2.17,-0.028032844311067767
2.172,-0.027746022883250454
2.174,-0.02745611678033612
2.176,-0.027163963439119407
2.178,-0.026870224024006215
2.18,-0.02657538342701296
2.182,-0.02627975026776725
2.184,-0.0259832222790756
2.186,-0.02568512669166558
2.188,-0.02538677978793907
2.19,-0.025089684879146996
2.192,-0.024795265894240425
2.194,-0.024504867379870884
2.196,-0.02421975450039023
2.198,-0.023941113037850705
2.2,-0.023670049392004584
2.202,-0.023407590580304796
2.204,-0.02315468423790422
2.206,-0.022912198617656258
2.208,-0.02268091823827628
2.21,-0.022461373584428297
2.212,-0.022253785661064382
2.214,-0.02205828038495005
2.216,-0.021874900798268936
2.218,-0.021703573385493467
2.22,-0.021544122795670723
2.222,-0.021396293984468476
2.224,-0.02125975252525479
2.226,-0.02113408460909831
2.228,-0.021018797044767744
2.23,-0.020913317258732106
2.232,-0.02081699329516102
2.234,-0.02072909381592392
2.236,-0.02064880810059102
2.238,-0.02057524604643246
2.24,-0.020507438168418924
2.242,-0.020444335599221305
2.244,-0.020384810089210885
2.246,-0.020327654006459195
2.248,-0.020271580336737996
2.25,-0.020215222683519468
2.252,-0.02015713526797605
2.254,-0.02009579292898041
2.256,-0.0200295911231057
2.258,-0.01995684592462522
2.26,-0.019875794025512716
2.262,-0.019784592735442072
2.264,-0.019681319981787508
2.266,-0.019563974309623783
2.268,-0.019430474881725585
2.27,-0.01927866147856816
2.272,-0.019106294498327105
2.274,-0.018911054956877987
2.276,-0.018690544487797108
2.278,-0.018442285342360767
2.28,-0.018163720389545713
2.282,-0.017857872482226103
2.284,-0.01752384029505237
2.286,-0.017147165841584905
2.288,-0.016713353696288832
2.29,-0.01620800392739384
2.292,-0.015616812096893792
2.294,-0.014925569260547293
2.296,-0.014120161967876712
2.298,-0.013186572262169589
2.3,-0.012110877680476896
2.302,-0.01087925125361508
2.304,-0.009477961506163684
2.306,-0.007893372456467942
2.308,-0.006111944611388458
2.31,-0.004120380900092726
2.312,-0.0019057806395482036
2.314,0.0005446245168514892
2.316,0.0032435074219462623
2.318,0.006203445434814131
2.32,0.009436920420765844
2.322,0.01295631875135096
2.324,0.0167739313043513
2.326,0.02090195346378782
2.328,0.025352485119913504
2.33,0.030137530669220758
2.332,0.03526899901443345
2.334,0.04075870356451572
2.336,0.0466183622346623
2.338,0.052859597446308804
2.34,0.059493936127121165
2.342,0.06654858614690373
2.344,0.07405032680256626
2.346,0.0819556557119028
2.348,0.09021755274668891
2.35,0.09878885285393565
2.352,0.10762224605587566
2.354,0.11667027744997771
2.356,0.12588534720893124
2.358,0.13521971058066268
2.36,0.14462547788831853
2.362,0.15405461453028246
2.364,0.16345894098015834
2.366,0.17279013278678707
2.368,0.18199972057422972
2.37,0.19103909004178446
2.372,0.19985948196397002
2.374,0.2084119921905411
2.376,0.2166475716464743
2.378,0.22451702633198134
2.38,0.23197101732249625
2.382,0.23896006076868798
2.384,0.24543452789644768
2.386,0.25134464500690135
2.388,0.2566404934763983
2.39,0.26127200975652065
2.392,0.265188985374076
2.394,0.26834106693110316
2.396,0.27067775610486694
2.398,0.27214840964786347
2.4,0.27270223938781546
2.402,0.27228332998605403
2.404,0.27086009690406804
2.406,0.2684859162781447
2.408,0.2652207257968011
2.41,0.26112373962959534
2.412,0.25625369641817847
2.414,0.25066857528928815
2.416,0.24442552287670097
2.418,0.23758083975987512
2.42,0.2301899439734048
2.422,0.2223074095147551
2.424,0.21398697788867405
2.426,0.20528155810717838
2.428,0.19624322668956884
2.43,0.18692322766241415
2.432,0.17737197255956783
2.434,0.16763904042215083
2.436,0.15777317779856892
2.438,0.14782229874449562
2.44,0.1378334848228888
2.442,0.1278529851039743
2.444,0.11792621616526262
2.446,0.10809776209153173
2.448,0.09841137447484437
2.45,0.08890997241453129
2.452,0.07963564251720727
2.454,0.07062963889675533
2.456,0.061932383174342825
2.458,0.05358346447840511
2.46,0.04562163944466149
2.462,0.03808483221610036
2.464,0.031057486834644467
2.466,0.024919348237705616
2.468,0.019612026642997896
2.47,0.014978571787725579
2.472,0.010871188539003335
2.474,0.007151236893848412
2.476,0.0036892319791873816
2.478,0.0003648440518501236
2.48,-0.002933101501424335
2.482,-0.006306624163993709
2.484,-0.00984858828930658
2.486,-0.013642703100908163
2.488,-0.017763522692434575
2.49,-0.022276446027618857
2.492,-0.027237716940284304
2.494,-0.032694424134351974
2.496,-0.03868450118383229
2.498,-0.04523672653283425
2.5,-0.05237072349555551
2.502,-0.060096960256293214
2.504,-0.06841674986943182
2.506,-0.0773222502594567
2.508,-0.08679646422093941
2.51,-0.09681330645428324
2.512,-0.10733789579765324
2.514,-0.11832631580827677
2.516,-0.12972549499652852
2.518,-0.14147320674288716
2.52,-0.15349806929791468
2.522,-0.16571954578227754
2.524,-0.178047944186725
2.526,-0.19038441737211123
2.528,-0.2026206497640564
2.53,-0.21397263543986042
2.532,-0.22250281167927602
2.534,-0.22648269410676516
2.536,-0.22441776962059184
2.538,-0.21504749639282764
2.54,-0.19734530386935642
2.542,-0.1705185927698572
2.544,-0.13400873508783587
2.546,-0.08749107409057713
2.548,-0.030874924319209636
2.55,0.03569642841137631
2.552,0.11184572701242906
2.554,0.19696174312145293
2.556,0.2901992771020738
2.558,0.3904791580441895
2.56,0.4964911004544351
2.562,0.6070201768727942
2.564,0.7176365208485439
2.566,0.822902427163372
2.568,0.9181246238846653
2.57,0.9993542723653263
2.572,1.0633869672439384
2.574,1.1077627364446272
2.576,1.130766041177166
2.578,1.1314257759369064
2.58,1.1095152685048109
2.582,1.0655522799474582
2.584,1.0007990046169994
2.586,0.9172744561946977
2.588,0.8184902485405683
2.59,0.7092431888702032
2.592,0.5939705154492007
2.594,0.4766204396866092
2.596,0.3606521461347252
2.598,0.24903579248929977
2.6,0.14425250958933378
2.602,0.048294401417275985
2.604,-0.0373354549011637
2.606,-0.11162300909684358
2.608,-0.17404323775734118
2.61,-0.2245601287623969
2.612,-0.2628221919130581
2.614,-0.2881483909693945
2.616,-0.3023033682741167
2.618,-0.30704163733059686
2.62,-0.30399464330388354
2.622,-0.2946707428859553
2.624,-0.28045526562690815
2.626,-0.26261051907015553
2.628,-0.24227578875240477
2.63,-0.22046733820368705
2.632,-0.19807840894732304
2.634,-0.17587922049996
2.636,-0.1545169703715334
2.638,-0.13451583406530515
2.64,-0.11627696507782696
2.642,-0.10007849489897425
2.644,-0.08607553301191541
2.646,-0.07430016689313954
2.648,-0.06466146201243206
2.65,-0.05694546183289443
2.652,-0.050807666606343
2.654,-0.045820008909747245
2.656,-0.04177227333105192
2.658,-0.03850607105236117
2.66,-0.03587485119150962
2.662,-0.033743900802068225
2.664,-0.03199034487333986
2.666,-0.03050314633036248
2.668,-0.029183106033906777
2.67,-0.0279428627804784
2.672,-0.02670689330231538
2.674,-0.025411512267391037
2.676,-0.02400487227941091
2.678,-0.022446963877815838
2.68,-0.020709615537778978
2.682,-0.018776493670208845
2.684,-0.016643102621745995
2.686,-0.01431678467476663
2.688,-0.011816720047378616
2.69,-0.00917392689342607
2.692,-0.006431258445244201
2.694,-0.0035724039931799047
2.696,-0.0005417563854463667
2.698,0.002669759333877711
2.7,0.0060704692140429554
2.702,0.00966795039762366
2.704,0.013469031120523367
2.706,0.017479790711969454
2.708,0.021705559594518795
2.71,0.02615091994761589
2.712,0.030819716015532524
2.714,0.03571505214891168
2.716,0.040839284058848596
2.718,0.046194018549760324
2.72,0.05178011351939567
2.722,0.05759767795882455
2.724,0.06364607195244874
2.726,0.06992390667799124
2.728,0.07642904440650693
2.73,0.08315859850237184
2.732,0.09010893342329403
2.734,0.09727566472030223
2.736,0.10465365903775788
2.738,0.11223703411334243
2.74,0.12001915877807073
2.742,0.12799322936061855
2.744,0.13618540040288513
2.746,0.14459409361036882
2.748,0.15319259031557209
2.75,0.16195449299408243
2.752,0.17085372526458822
2.754,0.17986453188886312
2.756,0.18896147877178143
2.758,0.19811945296130315
2.76,0.20731366264848877
2.762,0.2165196371674838
2.764,0.2257132269955354
2.766,0.23487060375297528
2.768,0.24396826020323614
2.77,0.2529830102528362
2.772,0.26189198895139415
2.774,0.2706726524916143
2.776,0.2793027782093016
2.778,0.287760464583346
2.78,0.29602413123573884
2.782,0.3040725189315565
2.784,0.3118846895789759
2.786,0.31944002622925977
2.788,0.3267182330767709
2.79,0.3336993354589585
2.792,0.34036367985637117
2.794,0.3466919338926444
2.796,0.3526650863345128
2.798,0.358264447091798
2.8,0.36347164721742026
2.802,0.36826863890738815
2.804,0.37263769550080733
2.806,0.376561411479873
2.808,0.3800227024698765
2.81,0.38300480945155313
2.812,0.38549144781597927
2.814,0.3874668473333829
2.816,0.3889155712580054
2.818,0.389822503987181
2.82,0.39017284038699646
2.822,0.38995198548922166
2.824,0.3891083039645555
2.826,0.3875798375102799
2.828,0.3853960552739186
2.83,0.38258811591896547
2.832,0.3791866757033644
2.834,0.37522188847950577
2.836,0.37072340569423123
2.838,0.3657203763888272
2.84,0.3602414471990328
2.842,0.354314762355031
2.844,0.3479679636814578
2.846,0.3412281905973928
2.848,0.3341220801163694
2.85,0.3266757668463635
2.852,0.31891488298980586
2.854,0.31086455834356896
2.856,0.30254942029898063
2.858,0.2939935938418098
2.86,0.2852207015522815
2.862,0.27625386360506154
2.864,0.26711569776927185
2.866,0.2578283194084748
2.868,0.24841334148068936
2.87,0.23889187453837482
2.872,0.22928452672844704
2.874,0.21961140379226196
2.876,0.20989210906563263
2.878,0.2001457434788115
2.88,0.19039090555650873
2.882,0.18064569141787368
2.884,0.1709276947765129
2.886,0.16125400694047315
2.888,0.15164121681225803
2.89,0.1421054108888102
2.892,0.13266217326153085
2.894,0.12332658561625978
2.896,0.11411322723329415
2.898,0.10503617498737124
2.9,0.09610900334768518
2.902,0.08734478437786981
2.904,0.07875608773601595
2.906,0.07035498067465457
2.908,0.06215302804077355
2.91,0.054161289102735787
2.912,0.0463899270562469
2.914,0.03884783284342741
2.916,0.03154330580773658
2.918,0.024484142887074456
2.92,0.01767763861379723
2.922,0.011130585114702236
2.924,0.004849272111041976
2.926,-0.0011605130814891246
2.928,-0.006893485552741558
2.93,-0.012344862798123628
2.932,-0.017510364718590018
2.934,-0.02238899812012964
2.936,-0.026991300792336883
2.938,-0.031327896548028825
2.94,-0.03540906794390322
2.942,-0.03924492574035168
2.944,-0.04284540890145207
2.946,-0.04622028459497575
2.948,-0.049379148192380554
2.95,-0.0523314232688178
2.952,-0.05508636160312533
2.954,-0.057653043177833915
2.956,-0.06004037617916185
2.958,-0.062257096997019555
2.96,-0.0643117702250052
2.962,-0.06621278866040922
2.964,-0.0679683733042097
2.966,-0.06958657336107674
2.968,-0.07107526623936872
2.97,-0.07244215755113553
2.972,-0.07369478111211533
2.974,-0.07484049894173785
2.976,-0.07588650126312141
2.978,-0.07683980650307556
2.98,-0.07770726129209853
2.982,-0.07849554046437963
2.984,-0.07921114705779717
2.986,-0.07986041231392033
2.988,-0.08044949567800734
2.99,-0.08098438479900719
2.992,-0.08147089552955822
2.994,-0.08191467192598922
2.996,-0.0823211862483183
2.998,-0.08269573896025428
3.0,-0.08304345872919533
3.002,-0.08336930242622993
3.004,-0.08367805512613635
3.006,-0.08397433010738282
3.008,-0.08426256885212763
3.01,-0.0845470408581052
3.012,-0.08483143509654104
3.014,-0.08511799439404823
3.016,-0.0854085421230406
3.018,-0.08570472985962196
3.02,-0.08600803738222004
3.022,-0.08631973276543431
3.024,-0.08664076792686426
3.026,-0.08697189035611477
3.028,-0.08731367574648097
3.03,-0.08766652799494737
3.032,-0.08803067920218904
3.034,-0.08840618967257068
3.036,-0.08879294791414694
3.038,-0.0891906706386626
3.04,-0.0895989027615522
3.042,-0.09001701740194032
3.044,-0.09044421588264163
3.046,-0.09087952773016053
3.048,-0.09132181067469136
3.05,-0.09176975065011858
3.052,-0.09222186179401673
3.054,-0.09267625291309903
3.056,-0.09312566209018427
3.058,-0.09356850473987402
3.06,-0.09400623286292574
3.062,-0.09444012737823114
3.064,-0.09487129812281599
3.066,-0.09530068385184062
3.068,-0.09572905223859934
3.07,-0.09615699987452087
3.072,-0.09658495226916813
3.074,-0.09701316385023837
3.076,-0.09744171796356303
3.078,-0.09787052687310781
3.08,-0.09829933176097262
3.082,-0.09872770272739179
3.084,-0.09915503879073373
3.086,-0.0995805678875012
3.088,-0.10000334687233116
3.09,-0.1004222615179949
3.092,-0.10083602651539801
3.094,-0.10124318547358004
3.096,-0.10164211091971517
3.098,-0.10203100429911163
3.1,-0.10240789597521201
3.102,-0.10277064522959299
3.104,-0.10311694026196569
3.106,-0.10344429819017535
3.108,-0.10375006505020164
3.11,-0.1040314157961583
3.112,-0.10428559073915543
3.114,-0.1045108634420822
3.116,-0.10470571887158943
3.118,-0.1048684710696265
3.12,-0.10499726299627715
3.122,-0.10509006652975939
3.124,-0.1051446824664253
3.126,-0.10515874052076148
3.128,-0.10512969932538858
3.13,-0.10505484643106171
3.132,-0.10493129830667007
3.134,-0.10475600033923713
3.136,-0.10452572683392071
3.138,-0.10423708101401274
3.14,-0.10388649502093969
3.142,-0.10347022991426191
3.144,-0.10298437567167423
3.146,-0.10242485118900577
3.148,-0.10178740428021968
3.15,-0.10106761167741378
3.152,-0.10026087903081957
3.154,-0.09937767482420505
3.156,-0.09843607461306286
3.158,-0.09740412063368864
3.16,-0.09624967945585117
3.162,-0.09494265455713877
3.164,-0.09345498632295712
3.166,-0.09176065204653197
3.168,-0.08983566592890606
3.17,-0.0876580790789423
3.172,-0.08520797951332043
3.174,-0.08246749215654058
3.176,-0.07942077884091953
3.178,-0.07605403830659488
3.18,-0.07235550620152012
3.182,-0.06831545508147034
3.184,-0.06392619441003575
3.186,-0.05918207055862892
3.188,-0.05407946680647722
3.19,-0.04861680334063023
3.192,-0.04279453725595215
3.194,-0.036615162555130386
3.196,-0.03008321014866563
3.198,-0.02320524785488283
3.2,-0.015989880399919602
3.202,-0.008447749417738192
3.204,-0.000591533450113162
3.206,0.007564052053355917
3.208,0.016002254735257564
3.21,0.024704285330354816
3.212,0.03364939424990603
3.214,0.04281544870685857
3.216,0.05217880579810632
3.218,0.06173600307417716
3.22,0.07142849107204703
3.222,0.08116528662751306
3.224,0.09085971486645435
3.226,0.10042938857915089
3.228,0.10979627388934278
3.23,0.11888669560373619
3.232,0.12763133721201814
3.234,0.13596524088684236
3.236,0.1438278074838435
3.238,0.15116279654162287
3.24,0.1579183262817623
3.242,0.164046873608811
3.244,0.16950527411029784
3.246,0.17425472205672002
3.248,0.17826077040155325
3.25,0.18149333078124294
3.252,0.18392667351521164
3.254,0.18553942760585262
3.256,0.1863145807385355
3.258,0.18623947928160198
3.26,0.18530582828636802
3.262,0.1835096914871239
3.264,0.18085149130113182
3.266,0.17733600882863074
3.268,0.1729713775065895
3.27,0.16775497226544878
3.272,0.16174647957988753
3.274,0.1550260743271915
3.276,0.14767140562229888
3.278,0.1397575968178126
3.28,0.1313572455039877
3.282,0.12254042350874476
3.284,0.11337467689765536
3.286,0.10392502597395747
3.288,0.09425396527853963
3.29,0.08442146358995703
3.292,0.07448496392441499
3.294,0.06449938353578599
3.296,0.05451711391559217
3.298,0.0445880207930234
3.3,0.034759444134918986
3.302,0.025076198145785315
3.304,0.015580571267779179
3.306,0.006312326180724016
3.308,-0.0026913001979063456
3.31,-0.011395596712971611
3.312,-0.019768389879768044
3.314,-0.02778021594598766
3.316,-0.035404281563033484
3.318,-0.042616323044078905
3.32,-0.04936110426092684
3.322,-0.055226733123092765
3.324,-0.060234549841405964
3.326,-0.06455353218515575
3.328,-0.0683424664627861
3.33,-0.07174994752188733
3.332,-0.07491437874920297
3.334,-0.07796397207062605
3.336,-0.08101674795119843
3.338,-0.0841805353951147
3.34,-0.08755297194571686
3.342,-0.09122150368550025
3.344,-0.09526338523610711
3.346,-0.09974567975833384
3.348,-0.10472525895212288
3.35,-0.11024880305657116
3.352,-0.11635280084992147
3.354,-0.1230635496495719
3.356,-0.13039715531206492
3.358,-0.13835953223309982
3.36,-0.14694640334751918
3.362,-0.15614330012932337
3.364,-0.1659255625916548
3.366,-0.17625833928681486
3.368,-0.1870965873062461
3.37,-0.19838507228055097
3.372,-0.21005836837947198
3.374,-0.2220408583119126
3.376,-0.23424673332591564
3.378,-0.24657999320868487
3.38,-0.2589344462865639
3.382,-0.2712029536876835
3.384,-0.28365199432881716
3.386,-0.2944485067790293
3.388,-0.3010645331905879
3.39,-0.3013453948929321
3.392,-0.29350969239266217
3.394,-0.276149305373538
3.396,-0.24822939269649513
3.398,-0.20908839239961208
3.4,-0.15843802169816126
3.402,-0.09636327698453855
3.404,-0.023322433828354083
3.406,0.059852953023678844
3.408,0.15195804964761367
3.41,0.251414742942418
3.412,0.35627164014258256
3.414,0.4642040531666484
3.416,0.572513995281652
3.418,0.6781301994158728
3.42,0.7776081193203301
3.422,0.8671299295689721
3.424,0.9420559679842796
3.426,0.9983630875974404
3.428,1.0339268218716104
3.43,1.0474055490093592
3.432,1.038231444272367
3.434,1.0066104799814477
3.436,0.953522425516565
3.438,0.8807208473167775
3.44,0.7907331088803318
3.442,0.686860370764534
3.444,0.5731775905859071
3.446,0.4545335230200118
3.448,0.3365467593231843
3.45,0.22324844999330437
3.452,0.11628289473266316
3.454,0.01756204167698985
3.456,-0.07137388434898581
3.458,-0.14935638183170846
3.46,-0.2155886725686401
3.462,-0.26964570166839785
3.464,-0.3114741375506359
3.466,-0.341392371946143
3.468,-0.36009051989676644
3.47,-0.3686304197554672
3.472,-0.36843576705507713
3.474,-0.3604875593384398
3.476,-0.3461551590326173
3.478,-0.3271565704366735
3.48,-0.30502699314903087
3.482,-0.28111882206743866
3.484,-0.2566016473890105
3.486,-0.2324622546101835
3.488,-0.20950462452676039
3.49,-0.18834993323386767
3.492,-0.16943655212599593
3.494,-0.15302004789696233
3.496,-0.13917318253994415
3.498,-0.1277859133474499
3.5,-0.11856539291134369
3.502,-0.11103858411015959
3.504,-0.10484717050943228
3.506,-0.09982955404616264
3.508,-0.0957891760180945
3.51,-0.09254470556752677
3.512,-0.08993003794130669
3.514,-0.0877941125803434
3.516,-0.08600075371316308
3.518,-0.0844289758343375
3.52,-0.08297302128299888
3.522,-0.08154236024283752
3.524,-0.08006169074210404
3.526,-0.07847093865360734
3.528,-0.07672525769471691
3.53,-0.0747950294273598
3.532,-0.07266586325802406
3.534,-0.07033859643775528
3.536,-0.06782929406216012
3.538,-0.06516924907140266
3.54,-0.06240498225020821
3.542,-0.05954333662752646
3.544,-0.05651281162297666
3.546,-0.05330179889659929
3.548,-0.049900840173533655
3.55,-0.046301215361322964
3.552,-0.04249494254991976
3.554,-0.038474778011679436
3.556,-0.03423421620136769
3.558,-0.029767489756152496
3.56,-0.025069569495612325
3.562,-0.020136164421727713
3.564,-0.01496372171889029
3.566,-0.009549426753893081
3.568,-0.0038912030759403996
3.57,0.002012287583361913
3.572,0.008161645309996628
3.574,0.014556732007545318
3.576,0.021196671397178013
3.578,0.028079849017663597
3.58,0.03520391222535914
3.582,0.04256577019422109
3.584,0.05016159391579331
3.586,0.05798681619921828
3.588,0.06603613167123197
3.59,0.07430370748189975
3.592,0.08282859772481325
3.594,0.0916222130387329
3.596,0.10065426626090236
3.598,0.10989497954385895
3.6,0.11931508435544849
3.602,0.1288858214788106
3.604,0.13857894101239346
3.606,0.14836670236993849
3.608,0.1582218742804966
3.61,0.16811773478841122
3.612,0.17802807101288312
3.614,0.1879268632088619
3.616,0.19778766238114348
3.618,0.207584355500545
3.62,0.21729133885319302
3.622,0.22688351804050733
3.624,0.2363363079800712
3.626,0.24562564763965064
3.628,0.25472803754615486
3.63,0.2636204991151784
3.632,0.27228056307762466
3.634,0.2806862694796907
3.636,0.2888161676828817
3.638,0.29664931636399733
3.64,0.3041652835151449
3.642,0.31134414644372654
3.644,0.31816649177245127
3.646,0.3246134154393239
3.648,0.33066652269765534
3.65,0.33630792811605303
3.652,0.34152025557842997
3.654,0.3462866382839959
3.656,0.3505907187472658
3.658,0.3544166487980519
3.66,0.357749089581471
3.662,0.3605732115579383
3.664,0.36287469450317206
3.666,0.36463972750819046
3.668,0.3658550089793132
3.67,0.3665077466381614
3.672,0.36658565752165667
3.674,0.3660769679820225
3.676,0.3649704136867823
3.678,0.36324161828794077
3.68,0.36082926616895244
3.682,0.35775762099012975
3.684,0.3540615540218334
3.686,0.34977522044645876
3.688,0.34493205935842797
3.69,0.33956479376419885
3.692,0.33370543058225544
3.694,0.3273852606431182
3.696,0.3206348586893326
3.698,0.31348408337548145
3.7,0.30596207726817237
3.702,0.29809726684605076
3.704,0.28991736249978567
3.706,0.2814493585320847
3.708,0.2727195331576792
3.71,0.26375344850333915
3.712,0.2545759506078575
3.714,0.2452114251547869
3.716,0.2356847800552576
3.718,0.22602058143506715
3.72,0.21624267941194017
3.722,0.20637420801564102
3.724,0.19643758518795673
3.726,0.18645451278271355
3.728,0.17644597656576053
3.73,0.16643224621498623
3.732,0.1564328753203018
3.734,0.1464667013836577
3.736,0.1365518458190274
3.738,0.12670571395242358
3.74,0.11694499502188159
3.742,0.10728566217747634
3.744,0.09774297248130527
3.746,0.08833146690750518
3.748,0.07906497034223621
3.75,0.0699565915836966
3.752,0.0610187233421091
3.754,0.052263042239733784
3.756,0.04370050881085551
3.758,0.035341367501796554
3.76,0.02719514667090419
3.762,0.019270658588562313
3.764,0.011575999437180462
3.766,0.004118549311204853
3.768,-0.003095027782893339
3.77,-0.01005878392660525
3.772,-0.016767487289397597
3.774,-0.023216622128699887
3.776,-0.029402388789916516
3.778,-0.03532170370641467
3.78,-0.04097219939953656
3.782,-0.046352020408672714
3.784,-0.05145956150022297
3.786,-0.056301718464109606
3.788,-0.06088718136676383
3.79,-0.06522445211680988
3.792,-0.06932184446507314
3.794,-0.07318748400457213
3.796,-0.07682930817052631
3.798,-0.08025506624034849
3.8,-0.08347231933365208
3.802,-0.08648844041224439
3.804,-0.08931061428013273
3.806,-0.09194583758351901
3.808,-0.0944009188108041
3.81,-0.09668247829258453
3.812,-0.09879694820165529
3.814,-0.10075067599111318
3.816,-0.10255065651962014
3.818,-0.10420410073757067
3.82,-0.10571803407614405
3.822,-0.10709929380871548
3.824,-0.10835452905085866
3.826,-0.10949020095978826
3.828,-0.11051259152124766
3.83,-0.11142780700472883
3.832,-0.11224176643542198
3.834,-0.11296020068071376
3.836,-0.11358865245018836
3.838,-0.1141324762956266
3.84,-0.11459683861100688
3.842,-0.11498671763250441
3.844,-0.11530690343849151
3.846,-0.11556199794953771
3.848,-0.1157564149284094
3.85,-0.11589437998007036
3.852,-0.11597993055168125
3.854,-0.11601691593259997
3.856,-0.11600899725438123
3.858,-0.11595964749077718
3.86,-0.11587215145773688
3.862,-0.11574960581340661
3.864,-0.1155949190581294
3.866,-0.1154108115344459
3.868,-0.11519981542709336
3.87,-0.11496427476300648
3.872,-0.11470634541131686
3.874,-0.11442799508335308
3.876,-0.11413100333264121
3.878,-0.11381696155490403
3.88,-0.11348727298806165
3.882,-0.11314315271223088
3.884,-0.11278562764972637
3.886,-0.11241553656505904
3.888,-0.11203221542291342
3.89,-0.11163197285693591
3.892,-0.1112167376105072
3.894,-0.11078888387825811
3.896,-0.11035066817328495
3.898,-0.10990422932714862
3.9,-0.10945158848987542
3.902,-0.1089946491299557
3.904,-0.10853519703434579
3.906,-0.10807490030846599
3.908,-0.1076153093762024
3.91,-0.1071578569799052
3.912,-0.10670385818039023
3.914,-0.10625449449401592
3.916,-0.10581060038492704
3.918,-0.10537272006286921
3.92,-0.10494127584174195
3.922,-0.10451657235390933
3.924,-0.10409879655020093
3.926,-0.10368801769991072
3.928,-0.10328418739079803
3.93,-0.10288713952908676
3.932,-0.10249659033946602
3.934,-0.1021121383650896
3.936,-0.10173326446757638
3.938,-0.10135933182701018
3.94,-0.10098958594193955
3.942,-0.10062315462937818
3.944,-0.10025904802480462
3.946,-0.0998961585821623
3.948,-0.09953326107385957
3.95,-0.09916901259076974
3.952,-0.09880195254223119
3.954,-0.0984305026560469
3.956,-0.09805296697848506
3.958,-0.09766753187427867
3.96,-0.09727226602662564
3.962,-0.09686512043718876
3.964,-0.09644392842609606
3.966,-0.09600640563193992
3.968,-0.09555015001177833
3.97,-0.09507264184113355
3.972,-0.09457124371399342
3.974,-0.09404320054280997
3.976,-0.0934856395585008
3.978,-0.09289557031044807
3.98,-0.09226988466649905
3.982,-0.09160535681296578
3.984,-0.09089864325462546
3.986,-0.09014628281471976
3.988,-0.08934469663495592
3.99,-0.08850898480850518
3.992,-0.08764292575345141
3.994,-0.08671872225064048
3.996,-0.08570974771679753
3.998,-0.08459062495338221
4.0,-0.08333722614659068
4.002,-0.08192667286735364
4.004,-0.0803373360713366
4.006,-0.07854883609894288
4.008,-0.07654204267530876
4.01,-0.07429907491030686
4.012,-0.07180330129854368
4.014,-0.06903933866299727
4.016,-0.06599302123661518
4.018,-0.06265139570680853
4.02,-0.05900275609179791
4.022,-0.05503664579454459
4.024,-0.050743857602740014
4.026,-0.04611643368881297
4.028,-0.04114766769349967
4.03,-0.03583212331559644
4.032,-0.030165625464391894
4.034,-0.024145248573002525
4.036,-0.017769316459277717
4.038,-0.011037402325810394
4.04,-0.003950328759920569
4.042,0.003489832266333485
4.044,0.011279759396161996
4.046,0.019414881888028902
4.048,0.027889379615673327
4.05,0.03669618306809551
4.052,0.04586765584646449
4.054,0.05542131416438987
4.056,0.06525778333703403
4.058,0.07527950534847473
4.06,0.08539333766488638
4.062,0.09551055323452193
4.064,0.10554684048773995
4.066,0.1154223033369863
4.068,0.12506146117680375
4.07,0.13439324888381363
4.072,0.14335101681674275
4.074,0.15187253081640548
4.076,0.1598999722057119
4.078,0.1673799377896533
4.08,0.174263439855324
4.082,0.18050590617190707
4.084,0.18606717999067898
4.086,0.1909115200450024
4.088,0.19500760055033833
4.09,0.19832851120423817
4.092,0.20085175718634588
4.094,0.20255925915839446
4.096,0.20343735326421236
4.098,0.2034767911297191
4.1,0.20267273986292594
4.102,0.2010247820539358
4.104,0.19853691577494548
4.106,0.1952175545802423
4.108,0.19107952750620577
4.11,0.18614007907130561
4.112,0.18042086927610995
4.114,0.17394115369422158
4.116,0.1667430716559635
4.118,0.15892140926273862
4.12,0.15056913089922316
4.122,0.14177483022657525
4.124,0.13262273018244916
4.126,0.12319268298098691
4.128,0.11356017011283566
4.13,0.10379630234512228
4.132,0.09396781972147072
4.134,0.08413709156199227
4.136,0.074362116463304
4.138,0.06469652229850226
4.14,0.055189566217180006
4.142,0.04588613464541885
4.144,0.03682674328580479
4.146,0.02804753711740384
4.148,0.019580290395778546
4.15,0.01145240665298051
4.152,0.003686918697564155
4.154,-0.003697511385434297
4.156,-0.010686592234482742
4.158,-0.01727040321155963
4.16,-0.023443394402142045
4.162,-0.02920438661522379
4.164,-0.034556571383303154
4.166,-0.039507510962388206
4.168,-0.04406913833198819
4.17,-0.04825775719512666
4.172,-0.052094041978332124
4.174,-0.05560303783164278
4.176,-0.05881416062859925
4.178,-0.06174867102040663
4.18,-0.0643129061023213
4.182,-0.06662432415726713
4.184,-0.06886019430381787
4.186,-0.07118947282973923
4.188,-0.07377280319198465
4.19,-0.0767625160166981
4.192,-0.08030262909920823
4.194,-0.08452884740403667
4.196,-0.08956856306489243
4.198,-0.09554085538467649
4.2,-0.10255649083547051
4.202,-0.11071792305855295
4.204,-0.12011929286438838
4.206,-0.1308464282326357
4.208,-0.1429768443121279
4.21,-0.15657974342090095
4.212,-0.17171188826601774
4.214,-0.1876908696743412
4.216,-0.20342335837812386
4.218,-0.21784089391425163
4.22,-0.22990053022912646
4.222,-0.2385848293615107
4.224,-0.24290186144251338
4.226,-0.2418852046956135
4.228,-0.23459394543589554
4.23,-0.22011266979758387
4.232,-0.19755144325517301
4.234,-0.16604583313352023
4.236,-0.12475691484984452
4.238,-0.07287127191369755
4.24,-0.009490062980142778
4.242,0.06687165608308174
4.244,0.1544964018057461
4.246,0.2507817337116518
4.248,0.35304440871760057
4.25,0.4585203811336533
4.252,0.5643648026629601
4.254,0.6676520224018477
4.256,0.7653755868396366
4.258,0.8544482398589168
4.26,0.9317019227353643
4.262,0.9938877741378079
4.264,1.0376761301281299
4.266,1.0596565241614286
4.268,1.0563376870859056
4.27,1.025682642225586
4.272,0.9711074021155545
4.274,0.897010486357769
4.276,0.8075411615510332
4.278,0.7065996994896523
4.28,0.5978373771636183
4.282,0.4846564767583387
4.284,0.37021028565481146
4.286,0.25740309642953496
4.288,0.14889020685470614
4.29,0.047077919897918735
4.292,-0.045876456277633454
4.294,-0.1280646083132422
4.296,-0.19788183608279214
4.298,-0.2550211480528516
4.3,-0.3000785319323306
4.302,-0.33372332195987736
4.304,-0.35670803236635024
4.306,-0.3698683573749067
4.308,-0.3741231712009387
4.31,-0.37047452805208736
4.312,-0.36000766212825214
4.314,-0.3438909876215816
4.316,-0.3233760749700959
4.318,-0.2997975652740467
4.32,-0.2745732481817832
4.322,-0.24920409333106044
4.324,-0.22519426795713246
4.326,-0.2031500875238729
4.328,-0.18316132360937173
4.33,-0.1652882478558296
4.332,-0.14954968268223076
4.334,-0.13592300128432774
4.336,-0.12434412763466433
4.338,-0.1147075364825394
4.34,-0.10686625335403226
4.342,-0.10063185455199337
4.344,-0.0957744671560545
4.346,-0.09202276902261296
4.348,-0.08906398878484262
4.35,-0.08654390585269
4.352,-0.08415233087293604
4.354,-0.08190510986210299
4.356,-0.07976562898070398
4.358,-0.07768898752295754
4.36,-0.07563404747782837
4.362,-0.07356343352903012
4.364,-0.07144353305502045
4.366,-0.06924449612900478
4.368,-0.06694023551893384
4.37,-0.06450842668750835
4.372,-0.061930507792172296
4.374,-0.05919167968511763
4.376,-0.056280905913281505
4.378,-0.05319091271835146
4.38,-0.04991818903675808
4.382,-0.046462986499679663
4.384,-0.04282931943303962
4.386,-0.03902340412404379
4.388,-0.035035592078679394
4.39,-0.03085353654033474
4.392,-0.026467422216094137
4.394,-0.021868434518864832
4.396,-0.017048759567365235
4.398,-0.012001584186132737
4.4,-0.006721095905519305
4.402,-0.0012024829617005572
4.404,0.004558065703337313
4.406,0.01056336044178936
4.408,0.016815210900036057
4.41,0.023314426018633153
4.412,0.03006081403232714
4.414,0.037053182470045035
4.416,0.04428928384601637
4.418,0.05176545450654111
4.42,0.05947683822261163
4.422,0.06741757702626722
4.424,0.07558081224373306
4.426,0.08395868449540743
4.428,0.09254233369588173
4.43,0.1013218985210608
4.432,0.11028649391917977
4.434,0.11942420281903765
4.436,0.12872210520306573
4.438,0.13816628034787382
4.44,0.147741806824259
4.442,0.1574327624971894
4.444,0.1672222245258285
4.446,0.17709226936351805
4.448,0.18702536954490978
4.45,0.19703186432548422
4.452,0.2070919896871107
4.454,0.21717055493178958
4.456,0.22723336821002849
4.458,0.2372472365208258
4.46,0.24717996571169637
4.462,0.25700036047865454
4.464,0.2666782243662212
4.466,0.2761843597674094
4.468,0.28549056792374766
4.47,0.2945696489252637
4.472,0.30339540171049273
4.474,0.3119426240664619
4.476,0.3201871126287135
4.478,0.32810566288128884
4.48,0.33567606915673676
4.482,0.3428771246360992
4.484,0.34968862134893197
4.486,0.35609135017329036
4.488,0.362067100835736
4.49,0.36759866191132634
4.492,0.3726698208236303
4.494,0.3772653638447173
4.496,0.3813710760951619
4.498,0.38497374154403724
4.5,0.38806114300892486
4.502,0.3906220621559084
4.504,0.39264627949957537
4.506,0.39412457440301435
4.508,0.3950487250778204
4.51,0.3954115085840906
4.512,0.3952067008304257
4.514,0.3944290765739299
4.516,0.3930744743689343
4.518,0.3911406119539909
4.52,0.38857602839382377
4.522,0.3853480332428365
4.524,0.38149297198811916
4.526,0.3770465333229135
4.528,0.3720437041019321
4.53,0.3665187693413696
4.532,0.36050531221888865
4.534,0.35403621407362823
4.536,0.3471436544061988
4.538,0.33985911087869436
4.54,0.33221335931467433
4.542,0.3242364736991757
4.544,0.3159578261787065
4.546,0.3074060870612596
4.548,0.29860922481629215
4.55,0.2895945060747387
4.552,0.28038849562900525
4.554,0.2710170564329826
4.556,0.2615053496020262
4.558,0.25187783441296807
4.56,0.2421582683041121
4.562,0.2323697068752478
4.564,0.22253450388762766
4.566,0.21267431126398217
4.568,0.20281007908851273
4.57,0.1929620556069072
4.572,0.18314978722631567
4.574,0.17339211851536704
4.576,0.1637071922041599
4.578,0.1541124491842807
4.58,0.1446246285087772
4.582,0.13525976739217613
4.584,0.12603320121047448
4.586,0.11695956350115613
4.588,0.10805278596316673
4.59,0.0993260984569313
4.592,0.09079202900434477
4.594,0.08246240378878834
4.596,0.07434834715510634
4.598,0.06646028160962121
4.6,0.05880792782012634
4.602,0.05140030461590053
4.604,0.04424572898768575
4.606,0.03735181608770264
4.608,0.030725479229643318
4.61,0.02437292988868294
4.612,0.018299677701462486
4.614,0.012510530466100258
4.616,0.007009553431097623
4.618,0.001798980085159418
4.62,-0.0031209071489116443
4.622,-0.007750592334551014
4.624,-0.012090234838869606
4.626,-0.01614139503579865
4.628,-0.01991436523917468
4.63,-0.023419935003117266
4.632,-0.02666870970400339
4.634,-0.02967107180338533
4.636,-0.03243719977840659
4.638,-0.034977092114037996
4.64,-0.037300567572501456
4.642,-0.03941726519327103
4.644,-0.04133664429307034
4.646,-0.043067984465877215
4.648,-0.04462038558292116
4.65,-0.04600276779268406
4.652,-0.04722387152089681
4.654,-0.04829225747054562
4.656,-0.049216306621866726
4.658,-0.05000422023234985
4.66,-0.05066401983673391
4.662,-0.05120354724701226
4.664,-0.05163046455242912
4.666,-0.05195225411948126
4.668,-0.05217621859191585
4.67,-0.052309480890733714
4.672,-0.05235898421418629
4.674,-0.05233149203777826
4.676,-0.0522335881142645
4.678,-0.052071676473653225
4.68,-0.05185198142320381
4.682,-0.051580547547427844
4.684,-0.051263239708088784
4.686,-0.050905743044201646
4.688,-0.05051356297203396
4.69,-0.05009202518510456
4.692,-0.049646275654184696
4.694,-0.049181280627297014
4.696,-0.048701826629716616
4.698,-0.048212520463969774
4.7,-0.047717789209835715
4.702,-0.047221880224344426
4.704,-0.04672886114177861
4.706,-0.046242619873672224
4.708,-0.04576686460881209
4.71,-0.045305123813235905
4.712,-0.04486074623023391
4.714,-0.04443690088034772
4.716,-0.04403656575093077
4.718,-0.04366164720788918
4.72,-0.04331235048127764
4.722,-0.042988552495993405
4.724,-0.04268995045418563
4.726,-0.042416061835255287
4.728,-0.04216622439585525
4.73,-0.041939596169890084
4.732,-0.04173515546851693
4.734,-0.04155014161525195
4.736,-0.041382095318826737
4.738,-0.04123143578797205
4.74,-0.041098505265997634
4.742,-0.040983547835051884
4.744,-0.04088670941612331
4.746,-0.04080803776903946
4.748,-0.04074748249246852
4.75,-0.04070489502391708
4.752,-0.040680028639732295
4.754,-0.04067253845509977
4.756,-0.040681981424046235
4.758,-0.040707816339436764
4.76,-0.04074940383297625
4.762,-0.040806006375209494
4.764,-0.04087678827552077
4.766,-0.040960815682134166
4.768,-0.04105705658211262
4.77,-0.04116438080135935
4.772,-0.04128156000461694
4.774,-0.041407267695467945
4.776,-0.04154007921633358
4.778,-0.04167847174847535
4.78,-0.04182082431199434
4.782,-0.04196541776583125
4.784,-0.04211043480776584
4.786,-0.042253959974418095
4.788,-0.04239397964124715
4.79,-0.042528382022552144
4.792,-0.04265495717147143
4.794,-0.04277139697998278
4.796,-0.04287529517890448
4.798,-0.042964147337893215
4.8,-0.04303535086544631
4.802,-0.043086205008899536
4.804,-0.04311391085442974
4.806,-0.043115571327051974
4.808,-0.04308819119062176
4.81,-0.04302867704783326
4.812,-0.042933837340221714
4.814,-0.04280038234816053
4.816,-0.042624924899242626
4.818,-0.04240440803238389
4.82,-0.04213683045514124
4.822,-0.04182028501643775
4.824,-0.04145276640403667
4.826,-0.041032171144540205
4.828,-0.04055629760339153
4.83,-0.040026311270758494
4.832,-0.039452731705752045
4.834,-0.038820267094198536
4.836,-0.03811046581523884
4.838,-0.03730535858722179
4.84,-0.03638745471495872
4.842,-0.035339742089723084
4.844,-0.03414568718925262
4.846,-0.03278923507774598
4.848,-0.03125480940586456
4.85,-0.02952731241073201
4.852,-0.027592124915936368
4.854,-0.02543510633152618
4.856,-0.023042594654013218
4.858,-0.020401406466370578
4.86,-0.017498836938037422
4.862,-0.014322659824911918
4.864,-0.010861127469355945
4.866,-0.007102970800194078
4.868,-0.0030373993327111504
4.87,0.001345898831339517
4.872,0.00605675700374788
4.874,0.011104529909839112
4.876,0.01649809368847903
4.878,0.022245845892062816
4.88,0.028355705486530876
4.882,0.03483511285135849
4.884,0.04169102977956181
4.886,0.04892993947768456
4.888,0.05655784656581786
4.89,0.06458951111106265
4.892,0.07307670103517044
4.894,0.08196824254651426
4.896,0.0911946889466352
4.898,0.10068808073309522
4.9,0.1103819455994858
4.902,0.12021129843540981
4.904,0.1301126413265083
4.906,0.14002396355444266
4.908,0.14988474159690365
4.91,0.15963593912759347
4.912,0.16922000701625253
4.914,0.17858088332864153
4.916,0.18766399332655015
4.918,0.19641644656615753
4.92,0.20478770274023195
4.922,0.21272894483857935
4.924,0.22019284305292586
4.926,0.2271335547710116
4.928,0.23350672457661223
4.93,0.2392694842495245
4.932,0.2443804527655726
4.934,0.2487997362965985
4.936,0.2524889282104758
4.938,0.2554111090711008
4.94,0.2575308466383956
4.942,0.2588141958683041
4.944,0.2592286989127983
4.946,0.25874338511987355
4.948,0.2573287710335496
4.95,0.2549516968589286
4.952,0.25156125179990574
4.954,0.24722458919893023
4.956,0.24203204650214916
4.958,0.23607086915019085
4.96,0.2294252105781517
4.962,0.2221761322156055
4.964,0.2144016034865967
4.966,0.20617650180965455
4.968,0.19757261259777348
4.97,0.18865862925842553
4.972,0.17950015319355353
4.974,0.17015969379958687
4.976,0.1606966684674179
4.978,0.15116740258241754
4.98,0.14162512952442718
4.982,0.13211999066777538
4.984,0.12269903538125312
4.986,0.11340622102812992
4.988,0.1042824129661459
4.99,0.09536538454752877
4.992,0.08668981711896767
4.994,0.0782873000216312
4.996,0.070186330591159
4.998,0.062412314157675924
5.0,0.05498756404577095
5.002,0.04793130157451119
5.004,0.041259656057435666
5.006,0.03498566480256707
5.008,0.02911927311239318
5.01,0.02366733428388032
5.012,0.018633609608466897
5.014,0.014018768372072585
5.016,0.009820387855085468
5.018,0.006032793717430348
5.02,0.0028047045292247663
5.022,0.0003678683710389317
5.024,-0.0015088886051035054
5.026,-0.003055678493822888
5.028,-0.004483576044752713
5.03,-0.0059846186625382635
5.032,-0.007731806406839727
5.034,-0.009879102439266449
5.036,-0.012561451106311912
5.038,-0.015894784170924187
5.04,-0.01997599777724671
5.042,-0.024882950724435672
5.044,-0.030674464466662815
5.046,-0.03739032311310521
5.048,-0.04505127342796073
5.05,-0.05365902483043824
5.052,-0.06319624939476473
5.054,-0.07362658185016593
5.056,-0.08489461958089488
5.058,-0.09692592262621313
5.06,-0.10962701368040172
5.062,-0.12288537809273656
5.064,-0.13656946386752525
5.066,-0.15082306009852448
5.068,-0.16526660962235024
5.07,-0.17767056309221813
5.072,-0.18598559458124778
5.074,-0.18844381745071584
5.076,-0.18355878435005984
5.078,-0.17012548721688833
5.08,-0.14722035727697094
5.082,-0.11420126504424126
5.084,-0.07070752032077585
5.086,-0.016659872196875578
5.088,0.04773949094905006
5.09,0.12200694145040997
5.092,0.20537741235248833
5.094,0.2968043974122909
5.096,0.3949599510987699
5.098,0.49823468859267683
5.1,0.6047377857866478
5.102,0.712296979285011
5.104,0.8181779721170372
5.106,0.917355863912834
5.108,1.0046436782376367
5.11,1.0758229638821772
5.112,1.127628421615062
5.114,1.1577479041826082
5.116,1.1648224163088863
5.118,1.1484462159849218
5.12,1.1091680019858647
5.122,1.0484905126578137
5.124,0.968869655855788
5.126,0.8737144914125164
5.128,0.7673872311386116
5.13,0.6545033849683614
5.132,0.5380448952202775
5.134,0.4213776981820555
5.136,0.30750765392114565
5.138,0.19901388355607225
5.14,0.09804876925664388
5.142,0.006337954243861486
5.144,-0.07481965720992229
5.146,-0.1445518997812481
5.148,-0.20241334709538344
5.15,-0.24838531172638062
5.152,-0.28287584519700404
5.154,-0.30671973797884877
5.156,-0.32043951630211936
5.158,-0.32434985423177465
5.16,-0.32017015825898937
5.162,-0.309516218469404
5.164,-0.29386735357544896
5.166,-0.2745664109163369
5.168,-0.2528197664581011
5.17,-0.2296973247935409
5.172,-0.2061325191422572
5.174,-0.1829223113506322
5.176,-0.16072719189187307
5.178,-0.1400711798659472
5.18,-0.12134182299962569
5.182,-0.10479019764646481
5.184,-0.09053090878683592
5.186,-0.07854209002787987
5.188,-0.06866540360353819
5.19,-0.060445363103060666
5.192,-0.05348338484702554
5.194,-0.047633493391720017
5.196,-0.04275693698226819
5.198,-0.038722107949028195
5.2,-0.03540454270759815
5.202,-0.03268692175880622
5.204,-0.030459069688716874
5.206,-0.028617955168629926
5.208,-0.027067690955082095
5.21,-0.02571953388984317
5.212,-0.024491884899918548
5.214,-0.02331028899754862
5.216,-0.02210743528021053
5.218,-0.020823189186220843
5.22,-0.019405383714336498
5.222,-0.01780986748000235
5.224,-0.015999675060449713
5.226,-0.013944985118143273
5.228,-0.01162312040078343
5.23,-0.009018547741304518
5.232,-0.006122878057879606
5.234,-0.0029348663539135074
5.236,0.0005395932153062469
5.238,0.004287509152681012
5.24,0.008288771657816527
5.242,0.0125161271150007
5.244,0.016935177823284776
5.246,0.021504381996486643
5.248,0.026175053763183027
5.25,0.03097259486840568
5.252,0.03598658527502484
5.254,0.04122330599205382
5.256,0.046687554542824895
5.258,0.05238312485917366
5.26,0.058312807281430665
5.262,0.06447838855842594
5.264,0.07088065184747784
5.266,0.07751937671441023
5.268,0.08439333913354037
5.27,0.09150031148768628
5.272,0.09883706256815288
5.274,0.10639935757475139
5.276,0.11418195811578676
5.278,0.12217862220806448
5.28,0.13038210427687627
5.282,0.13878415515602058
5.284,0.1473755220877902
5.286,0.1561459487229778
5.288,0.16508417512086165
5.29,0.17417793774922846
5.292,0.18341396948435762
5.294,0.19277799961102993
5.296,0.2022547538225101
5.298,0.21182795422057238
5.3,0.22148031931548362
5.302,0.231193564026012
5.304,0.24094839967940937
5.306,0.25072453401143735
5.308,0.26050220932452106
5.31,0.2702930773681759
5.312,0.2800781828561545
5.314,0.2898222003913512
5.316,0.2994909884828344
5.318,0.3090515940057074
5.32,0.31847255582459644
5.322,0.3277240991035853
5.324,0.3367776791721871
5.326,0.3456059352660958
5.328,0.35418269052717205
5.33,0.36248295200346586
5.332,0.37048291064920064
5.334,0.3781599413247812
5.336,0.3854926027967796
5.338,0.39246063773795653
5.34,0.399044972727246
5.342,0.405227718249763
5.344,0.410992168696792
5.346,0.4163228023658032
5.348,0.4212052814604419
5.35,0.42562645209053346
5.352,0.4295743442720742
5.354,0.4330381719272445
5.356,0.4360083328844008
5.358,0.43847640887807776
5.36,0.4404351655489848
5.362,0.44187855244401236
5.364,0.4428017030162271
5.366,0.44320093462487403
5.368,0.44307374853537534
5.37,0.44241882991933096
5.372,0.4412360478545189
5.374,0.43952645532489343
5.376,0.4372922892205897
5.378,0.43453697033791794
5.38,0.4312651033793666
5.382,0.427482476953602
5.384,0.42316826223710535
5.386,0.4183039713000693
5.388,0.41292224940164446
5.39,0.40705552290016056
5.392,0.4007355459670152
5.394,0.3939934005866868
5.396,0.3868594965567166
5.398,0.3793635714877205
5.4,0.371534690803382
5.402,0.363401247740467
5.404,0.35499096334880204
5.406,0.34633088649128924
5.408,0.3374473938438982
5.41,0.3283661898956813
5.412,0.3191123069487516
5.414,0.3097101051182968
5.416,0.3001832723325726
5.418,0.2905548240829643
5.42,0.28084699301363186
5.422,0.2710810555074689
5.424,0.26127757081104186
5.426,0.2514564259840023
5.428,0.24163683589906007
5.43,0.2318373432420009
5.432,0.22207581851167787
5.434,0.21236946002002846
5.436,0.20273479388947002
5.438,0.19318766011291635
5.44,0.18374317993766218
5.442,0.17441579271726226
5.444,0.1652192656183304
5.446,0.15616669362055602
5.448,0.1472704995166959
5.45,0.13854243391259127
5.452,0.1299935752271413
5.454,0.12163432969232232
5.456,0.11347443135317772
5.458,0.10552294206783368
5.46,0.09778825150747669
5.462,0.09027807715636854
5.464,0.0829994643118396
5.466,0.07595878608430134
5.468,0.06916174339722692
5.47,0.06261336498716427
5.472,0.0563180074037305
5.474,0.050279355009622245
5.476,0.04450041998059936
5.478,0.03898813161787089
5.48,0.03375166717398891
5.482,0.028782697139012096
5.484,0.024072138524883605
5.486,0.01961105674131434
5.488,0.015390665595778116
5.49,0.011402327293519655
5.492,0.007637552437542742
5.494,0.004088000028618417
5.496,0.0007454774652811422
5.498,-0.002398059456165126
5.5,-0.005350506541655869
5.502,-0.00811961119936001
5.504,-0.010712972439682479
5.506,-0.013138040875260028
5.508,-0.015402118720967445
5.51,-0.01751235979391354
5.512,-0.019475769513442858
5.514,-0.0212992049011324
5.516,-0.022989374580796633
5.518,-0.02455283877848415
5.52,-0.02599591791266439
5.522,-0.027324403390255353
5.524,-0.028543839171280734
5.526,-0.029659620817770824
5.528,-0.030676995493991232
5.53,-0.031601061966441114
5.532,-0.0324367706038562
5.534,-0.03318892337720651
5.536,-0.033862173859697295
5.538,-0.03446102722676795
5.54,-0.034989840256093974
5.542,-0.035452821327584864
5.544,-0.035854030423385905
5.546,-0.03619737912787649
5.548,-0.03648663062767165
5.55,-0.03672539971162099
5.552,-0.036917152770809335
5.554,-0.037065207798556224
5.556,-0.03717273439041631
5.558,-0.037242753744179194
5.56,-0.037278138659869293
5.562,-0.0372816135397463
5.564,-0.03725575438830441
5.566,-0.037202988812273186
5.568,-0.03712559602061673
5.57,-0.03702570682453479
5.572,-0.03690530363746131
5.574,-0.03676622047506564
5.576,-0.03661014295525186
5.578,-0.036438608298159404
5.58,-0.03625300532616206
5.582,-0.03605457446386906
5.584,-0.035844407738124195
5.586,-0.03562344877800685
5.588,-0.03539249281483067
5.59,-0.035152186682144634
5.592,-0.03490302881573259
5.594,-0.034645369253613334
5.596,-0.03437940963604066
5.598,-0.03410520320550337
5.6,-0.033822654806724854
5.602,-0.03353152088666417
5.604,-0.03323140949451475
5.606,-0.03292178028170501
5.608,-0.03260194450189865
5.61,-0.03227106501099415
5.612,-0.031928156267124815
5.614,-0.03157208433065904
5.616,-0.031201566864200225
5.618,-0.030815173132586866
5.62,-0.03041140251750628
5.622,-0.029986418510406225
5.624,-0.029526147094662877
5.626,-0.029033700387286792
5.628,-0.028514661692215733
5.63,-0.027974253269337487
5.632,-0.027417336334488892
5.634,-0.026848411059456043
5.636,-0.026271616571975406
5.638,-0.02569073043029933
5.64,-0.025109148227944758
5.642,-0.024529877048080448
5.644,-0.023955561064784525
5.646,-0.02338848340808359
5.648,-0.022830566163954173
5.65,-0.022283370374322015
5.652,-0.02174809603706262
5.654,-0.02122558210600067
5.656,-0.020716306490910434
5.658,-0.020220386057515267
5.66,-0.01973757662748868
5.662,-0.019267272978453064
5.664,-0.018808508843980325
5.666,-0.018359956913591824
5.668,-0.017919928832758714
5.67,-0.017486375202901087
5.672,-0.017056885581388844
5.674,-0.01662868848154106
5.676,-0.01619865137262641
5.678,-0.015763280679863278
5.68,-0.015318721784418912
5.682,-0.014860759023410264
5.684,-0.014384815689904068
5.686,-0.013885954032916058
5.688,-0.013358875257411442
5.69,-0.012797919524305026
5.692,-0.012197065950461255
5.694,-0.011549932608693738
5.696,-0.01084977652776545
5.698,-0.010089493692388785
5.7,-0.009261619043226192
5.702,-0.008358326476888904
5.704,-0.007371428845937857
5.706,-0.006292377958882876
5.708,-0.005112264580184725
5.71,-0.0038218184302519992
5.712,-0.0024114081854436694
5.714,-0.0008710414780669787
5.716,0.0008096351036192071
5.718,0.00264133601540839
5.72,0.004635181100776518
5.722,0.006803181619035519
5.724,0.00915805924817981
5.726,0.011712902865329108
5.728,0.014481162391652588
5.73,0.01747664879237121
5.732,0.020713534076752714
5.734,0.024206351298119013
5.736,0.027969994553841613
5.738,0.03201971898534429
5.74,0.036371140778096035
5.742,0.04104023716162138
5.744,0.04604334640949404
5.746,0.05139716783934069
5.748,0.05711876181283102
5.75,0.06322554973569307
5.752,0.06973440282930653
5.754,0.07664177464021611
5.756,0.08392696124539309
5.758,0.09156728840795372
5.76,0.09953783408289031
5.762,0.10781142841707828
5.764,0.11635865374926135
5.766,0.12514784461007356
5.768,0.1341450877220241
5.77,0.14331422199950636
5.772,0.15261683854877994
5.774,0.16201228066799658
5.776,0.17145764384718273
5.778,0.18090777576824899
5.78,0.19031527630497197
5.782,0.19963049752302048
5.784,0.20880154367993847
5.786,0.21777427122515303
5.788,0.22649228879995864
5.79,0.2348969572375411
5.792,0.24292738956296148
5.794,0.2505204509931632
5.796,0.25761075893695934
5.798,0.26413068299505194
5.8,0.27001034496001963
5.802,0.27517761881632186
5.804,0.27957258292497367
5.806,0.2831760486636202
5.808,0.2859721290146476
5.81,0.28794931739847207
5.812,0.289100665583346
5.814,0.2894237836853626
5.816,0.288920840168453
5.818,0.2875985618443859
5.82,0.2854682191924428
5.822,0.2825452953032955
5.824,0.2788494813245486
5.826,0.27440501116037525
5.828,0.2692406770627934
5.83,0.2633898296316533
5.832,0.2568903778146456
5.834,0.2497847889072965
5.836,0.24212008855297998
5.838,0.2339478607428991
5.84,0.2253242441303911
5.842,0.21630990158290964
5.844,0.20697003582994639
5.846,0.1973744077666727
5.848,0.1875973366361024
5.85,0.17771770002908327
5.852,0.1678189338843151
5.854,0.15798258444029192
5.856,0.14821907477916685
5.858,0.1385655166049849
5.86,0.12907128478736632
5.862,0.1197812689867974
5.864,0.11073587365464713
5.866,0.10197101803315979
5.868,0.09351813615546964
5.87,0.0854041768455784
5.872,0.07765160371837004
5.874,0.0702783951796044
5.876,0.06329804442592946
5.878,0.056719559444862365
5.88,0.050547463014802334
5.882,0.0447817927050244
5.884,0.03941810087569073
5.886,0.03444745467783374
5.888,0.029856436053367533
5.89,0.02562714173508495
5.892,0.021737183246655866
5.894,0.01815968690263405
5.896,0.014863293808446875
5.898,0.011812159860401865
5.9,0.00896595574568438
5.902,0.006279866942362303
5.904,0.003704593719378298
5.906,0.0011863511365550153
5.908,-0.001333130955407164
5.91,-0.003841669880512272
5.912,-0.006467283914328367
5.914,-0.009539084232544667
5.916,-0.013336804214281382
5.918,-0.018088778161066046
5.92,-0.02397193992509672
5.922,-0.031111740639298807
5.924,-0.0395821019397836
5.926,-0.049405535075177524
5.928,-0.06055315221653057
5.93,-0.072944666457301
5.932,-0.08644839181336579
5.934,-0.10088124322299531
5.936,-0.11600874937571777
5.938,-0.13157641891054467
5.94,-0.14672447730812352
5.942,-0.16031906248780362
5.944,-0.17127719041395265
5.946,-0.17856675509592884
5.948,-0.18120652858808808
5.95,-0.17826616098978096
5.952,-0.1688661804453607
5.954,-0.15217799314417582
5.956,-0.12742388332055932
5.958,-0.09387701325387639
5.96,-0.05086142326845905
5.962,0.0022479682663540355
5.964,0.06604248769729278
5.966,0.1416902383106837
5.968,0.22813458948627552
5.97,0.323159175844827
5.972,0.42443026922504606
5.974,0.5294967786834085
5.976,0.6357902504944284
5.978,0.7406248681504799
5.98,0.8411974523618845
5.982,0.9345874610567343
5.984,1.0177569893811615
5.986,1.0875507696991569
5.988,1.140696171592633
5.99,1.1738032018613413
5.992,1.1833645045230097
5.994,1.1665002250534255
5.996,1.1251456991146003
5.998,1.063093610515318
6.0,0.9839913937075525
6.002,0.8913357809771402
6.004,0.7884728024437226
6.006,0.6785977860609329
6.008,0.5647553576161195
6.01,0.4498394407305249
6.012,0.33659325685919395
6.014,0.22760932529117417
6.016,0.12532946314921298
6.018,0.03204478538995802
6.02,-0.05010477973613781
6.022,-0.12006837670804646
6.024,-0.17823334661096418
6.026,-0.22491639367525362
6.028,-0.2605548146837917
6.03,-0.28570649897191164
6.032,-0.3010499284274969
6.034,-0.3073841774909135
6.036,-0.3056289131550261
6.038,-0.2968243949652045
6.04,-0.28213147501465263
6.042,-0.26283157921268446
6.044,-0.24032666468720287
6.046,-0.2161392685880588
6.048,-0.191847353941289
6.05,-0.168330941749092
6.052,-0.14602781979518187
6.054,-0.12530455720619732
6.056,-0.10644509521755967
6.058,-0.08965074717351325
6.06,-0.07504019852710947
6.062,-0.06264950684023143
6.064,-0.05243210178355534
6.066,-0.04425878513657704
6.068,-0.037917730787602806
6.07,-0.03311448473376
6.072,-0.029471965080979982
6.074,-0.02653046204401025
6.076,-0.023996771943873507
6.078,-0.02186872885408742
6.08,-0.02005373916287457
6.082,-0.018467455427003142
6.084,-0.017033807482629587
6.086,-0.015685002445301646
6.088,-0.014361524709953687
6.09,-0.01301213595090996
6.092,-0.011593875121883156
6.094,-0.010072058455976907
6.096,-0.00842027946568202
6.098,-0.006620408942878909
6.1,-0.004662594958836027
6.102,-0.002545262864213766
6.104,-0.0002751152890587451
6.106,0.0021328678571924577
6.108,0.0046757102712643925
6.11,0.007382033661509319
6.112,0.010261223652401176
6.114,0.0133215849529266
6.116,0.016570832721186344
6.118,0.020016092564389222
6.12,0.023663900538859556
6.122,0.027520145321951846
6.124,0.03158989703703567
6.126,0.03587757957736684
6.128,0.040387027285319566
6.13,0.045121484952378776
6.132,0.0500836078191446
6.134,0.05527546157532323
6.136,0.06069852235974026
6.138,0.06635367676033152
6.14,0.07224122181414863
6.142,0.07836086500734776
6.144,0.08471172427520599
6.146,0.09129232800211036
6.148,0.09810061502156052
6.15,0.10513393461617226
6.152,0.11238904651766485
6.154,0.11986212090687914
6.156,0.12755923178229706
6.158,0.13551627960879986
6.16,0.1437168216685492
6.162,0.15213802272244437
6.164,0.1607572132649403
6.166,0.1695518895240554
6.168,0.17849971346135626
6.17,0.18757851277198043
6.172,0.19676628088462123
6.174,0.206041176961536
6.176,0.21538152589852913
6.178,0.22476581832497688
6.18,0.23417271060381098
6.182,0.24358102483152697
6.184,0.25296974883816775
6.186,0.2623180361873481
6.188,0.2716052061762382
6.19,0.28081074383557164
6.192,0.28991429992962997
6.194,0.2988956909562661
6.196,0.3077348991468891
6.198,0.31641207246647046
6.2,0.32490752461353056
6.202,0.3332017350201606
6.204,0.3412753488520079
6.206,0.34910917700828215
6.208,0.35668419612174285
6.21,0.3639815485587189
6.212,0.37098254241909645
6.214,0.3776686515363229
6.216,0.38402151547739705
6.218,0.3900229395428863
6.22,0.39565489476691434
6.222,0.40089950473646035
6.224,0.40573897281751625
6.226,0.41015563365217533
6.228,0.41413198752390784
6.23,0.4176507004497448
6.232,0.4206946041802723
6.234,0.42324669619964117
6.236,0.42529013972555946
6.238,0.4268082637092959
6.24,0.42778456283567723
6.242,0.42820269636523717
6.244,0.428028990123759
6.246,0.42717984649724866
6.248,0.42567249480708025
6.25,0.42353693166967327
6.252,0.42080265865494376
6.254,0.41749868228630194
6.256,0.4136535140406605
6.258,0.40929517034842267
6.26,0.4044511725934909
6.262,0.3991485471132605
6.264,0.3934138251986312
6.266,0.3872730430939918
6.268,0.3807517419972301
6.27,0.3738749680597269
6.272,0.3666672723863694
6.274,0.3591527110355311
6.276,0.35135484501908604
6.278,0.3432967403024
6.28,0.335000967804347
6.282,0.3264896033972865
6.284,0.3177842279070777
6.286,0.3089059271130724
6.288,0.299875291748131
6.29,0.2907124174985982
6.292,0.28143690500431956
6.294,0.27206785985863224
6.296,0.2626238926083828
6.298,0.253123118753902
6.3,0.24358315874902062
6.302,0.23402113800106217
6.304,0.22445368687085918
6.306,0.21489694067272758
6.308,0.20536653967448493
6.31,0.19587762909743994
6.312,0.18644485911641126
6.314,0.17708238485970063
6.316,0.1678038664091114
6.318,0.1586224687999381
6.32,0.14955086202098533
6.322,0.14060123146145695
6.324,0.13178538506129317
6.326,0.12311470979494672
6.328,0.11460009874715367
6.33,0.10625194995613514
6.332,0.09808016641361272
6.334,0.09009415606480073
6.336,0.08230283180842046
6.338,0.07471461149667968
6.34,0.06733741793528535
6.342,0.06017867888343812
6.344,0.053245327053844924
6.346,0.046543800112698944
6.348,0.040080040679693424
6.35,0.03385949632801529
6.352,0.02788711958435643
6.354,0.02216736792889613
6.356,0.016704203795313767
6.358,0.011501094570782503
6.36,0.006559140767654462
6.362,0.0018691318956996577
6.364,-0.0025782808089897507
6.366,-0.006791963363765249
6.368,-0.010780618092203306
6.37,-0.014552783624117435
6.372,-0.018116834895550542
6.374,-0.021480983148777704
6.376,-0.02465327593230098
6.378,-0.02764159710085809
6.38,-0.030453666815416055
6.382,-0.03309704154317439
6.384,-0.03557911405756013
6.386,-0.03790711343823514
6.388,-0.04008810507109099
6.39,-0.04212899064825147
6.392,-0.04403650816806861
6.394,-0.04581723193512837
6.396,-0.04747757256024695
6.398,-0.04902377696047236
6.4,-0.05046192835908147
6.402,-0.051797946285584595
6.404,-0.053037586575722384
6.406,-0.05418644137146663
6.408,-0.05524993912102056
6.41,-0.05623334457881733
6.412,-0.057141758805522545
6.414,-0.057980119168032467
6.416,-0.0587531993394747
6.418,-0.05946560929920714
6.42,-0.060121795332819784
6.422,-0.060726037804995664
6.424,-0.061282404871910716
6.426,-0.06179475394037219
6.428,-0.06226677678819513
6.43,-0.06270200149942522
6.432,-0.0631037924643391
6.434,-0.06347535037944471
6.436,-0.06381971224748101
6.438,-0.06413975137741855
6.44,-0.06443817738445827
6.442,-0.06471753619003269
6.444,-0.06498020556307586
6.446,-0.06522835921241354
6.448,-0.06546398568890612
6.45,-0.06568890965093162
6.452,-0.06590479206309967
6.454,-0.06611313019625024
6.456,-0.06631525762745477
6.458,-0.06651234424001619
6.46,-0.06670539622346823
6.462,-0.0668952560735754
6.464,-0.06708260259233388
6.466,-0.06726795088797072
6.468,-0.06745165237494435
6.47,-0.06763389477394384
6.472,-0.06781470211188963
6.474,-0.0679939347219336
6.476,-0.06817128924345814
6.478,-0.06834571651289319
6.48,-0.06851537930653333
6.482,-0.06868149824261358
6.484,-0.06884545625927244
6.486,-0.06900853627752748
6.488,-0.0691719212012745
6.49,-0.06933669391728765
6.492,-0.06950383729521908
6.494,-0.06967423418759977
6.496,-0.06984866742983903
6.498,-0.07002781984022466
6.5,-0.07021227421992206
6.502,-0.07040251335297594
6.504,-0.070598920006309
6.506,-0.07080177692972271
6.508,-0.07101126685589601
6.51,-0.07122747250038695
6.512,-0.07145037656163211
6.514,-0.07167986172094575
6.516,-0.07191571064252089
6.518,-0.07215760597342903
6.52,-0.07240513034362032
6.522,-0.07265776307020777
6.524,-0.07291470487309049
6.526,-0.07317479014586421
6.528,-0.0734367315403226
6.53,-0.0736991416911372
6.532,-0.07396053321585852
6.534,-0.07421931871491527
6.536,-0.07447381077161463
6.538,-0.07472222195214165
6.54,-0.0749626648055604
6.542,-0.07519315186381295
6.544,-0.07541159564172008
6.546,-0.07561580863698034
6.548,-0.07580350333017138
6.55,-0.07597229218474905
6.552,-0.07611968764704682
6.554,-0.07624310214627766
6.556,-0.07633984809453213
6.558,-0.07640713788677995
6.56,-0.07644208390086807
6.562,-0.07644169849752287
6.564,-0.07640289402034867
6.566,-0.07632248279582816
6.568,-0.07619717713332225
6.57,-0.0760235893250708
6.572,-0.07579823164619157
6.574,-0.07552456399196536
6.576,-0.07520322119551304
6.578,-0.07481614717196422
6.58,-0.07434535498690813
6.582,-0.07377325364898608
6.584,-0.07308264810988967
6.586,-0.07225673926436299
6.588,-0.07127912395020074
6.59,-0.07013379494824844
6.592,-0.06880514098240291
6.594,-0.06727794671961364
6.596,-0.0655373927698798
6.598,-0.0635690556862523
6.6,-0.061358907964832066
6.602,-0.05889331804477464
6.604,-0.056159050308283553
6.606,-0.05314326508061467
6.608,-0.049833518630073716
6.61,-0.04621776316802173
6.612,-0.04228434684886688
6.614,-0.03802201377007022
6.616,-0.03341990397214156
6.618,-0.028467553438648322
6.62,-0.02315489409620261
6.622,-0.017472255820282362
6.624,-0.011410891231338939
6.626,-0.004963678551745518
6.628,0.0018759329186510236
6.63,0.009114097936950467
6.632,0.016756575317204595
6.634,0.024829296270081173
6.636,0.03335240576372708
6.638,0.04226934571667554
6.64,0.051521610613232814
6.642,0.061051405035678706
6.644,0.07080164366381736
6.646,0.08071594982674708
6.648,0.09073865230249076
6.65,0.10081478903632848
6.652,0.1108901080715362
6.654,0.12091106754937289
6.656,0.1308248357090855
6.658,0.14057929088789345
6.66,0.15012302152101456
6.662,0.15940532614164651
6.664,0.16837621338097303
6.666,0.17698640196816529
6.668,0.18518732073036956
6.67,0.19293110859272783
6.672,0.20017061457836363
6.674,0.2068593978083873
6.676,0.2129517275018872
6.678,0.2184025829759443
6.68,0.22316765364562302
6.682,0.22720333902397175
6.684,0.2304667487220215
6.686,0.23291570244879264
6.688,0.23450873001128913
6.69,0.23520507131449864
6.692,0.23496467636139495
6.694,0.233739227105446
6.696,0.23151375329087867
6.698,0.22835383275653398
6.7,0.2243272204006993
6.702,0.21950006525308868
6.704,0.21393691047484892
6.706,0.20770069335855598
6.708,0.20085274532822645
6.71,0.1934527919392998
6.712,0.18555895287864974
6.714,0.17722774196457827
6.716,0.16851406714683
6.718,0.15947123050657064
6.72,0.15015092825640058
6.722,0.1406032507441056
6.724,0.13087717600973475
6.726,0.12102193517673604
6.728,0.1110855910797722
6.73,0.10111460068493336
6.732,0.09115381508975438
6.734,0.08124647952318872
6.736,0.07143423334562583
6.738,0.06175711004888286
6.74,0.05225353725622084
6.742,0.042960336722320344
6.744,0.03391272433329774
6.746,0.025144310106697078
6.748,0.016687098191505347
6.75,0.00857148686813055
6.752,0.0008262685484153416
6.754,-0.006521370224368316
6.756,-0.013445848775508326
6.758,-0.020002396983500814
6.76,-0.026243213306234917
6.762,-0.03213903623777532
6.764,-0.03767189429741151
6.766,-0.04283513215006288
6.768,-0.04763341060627203
6.77,-0.0520827066222072
6.772,-0.05621031329965481
6.774,-0.060054839886031705
6.776,-0.06366621177437666
6.778,-0.06710567050335467
6.78,-0.07044577375724954
6.782,-0.07377039536597468
6.784,-0.07717472530506571
6.786,-0.08076526969568433
6.788,-0.08465985080461137
6.79,-0.0889876070442568
6.792,-0.09388899297265309
6.794,-0.09951577929345994
6.796,-0.10603105285595305
6.798,-0.11360921665504
6.8,-0.12243598983125029
6.802,-0.13270840767074232
6.804,-0.14463574086716002
6.806,-0.15839318701338675
6.808,-0.17359156250711358
6.81,-0.18962067463434132
6.812,-0.20583143394871437
6.814,-0.22153585427156172
6.816,-0.23600705269186986
6.818,-0.24847924956629325
6.82,-0.25814776851913523
6.822,-0.26416903644237977
6.824,-0.2656608098938737
6.826,-0.26170335002363787
6.828,-0.25133855675593336
6.83,-0.2335694343555791
6.832,-0.2073600903550583
6.834,-0.17163573555450035
6.836,-0.12551196796857425
6.838,-0.06879142032272709
6.84,-0.0015371887104951003
6.842,0.07579965812980369
6.844,0.1623748156853991
6.846,0.2569507432811277
6.848,0.3578966501833187
6.85,0.46318849178119276
6.852,0.5704089865241353
6.854,0.6767476170873254
6.856,0.7790006303715482
6.858,0.8735710375032834
6.86,0.9564686138345372
6.862,1.0233098989431004
6.864,1.0694543950934592
6.866,1.0936641921486194
6.868,1.0951522918204217
6.87,1.0731320730404401
6.872,1.027882100502554
6.874,0.9607461246629277
6.876,0.8741330817401411
6.878,0.7715170937150069
6.88,0.6574374683306835
6.882,0.5374986990925951
6.884,0.4183430498309745
6.886,0.3029224709632119
6.888,0.19209081790808752
6.89,0.08818657244881968
6.892,-0.0068833856613266355
6.894,-0.0916437786993212
6.896,-0.16505093097217566
6.898,-0.2264927688170194
6.9,-0.27578882060099325
6.902,-0.31319021672141556
6.904,-0.3393796896056655
6.906,-0.35472933463696843
6.908,-0.35996129644884706
6.91,-0.35681174063350385
6.912,-0.34689272732777743
6.914,-0.3316891677624132
6.916,-0.31255882426205517
6.918,-0.29073231024527896
6.92,-0.26731309022454286
6.922,-0.24327747980621878
6.924,-0.219474613081483
6.926,-0.19662612937329493
6.928,-0.1753263107849808
6.93,-0.15604228765098277
6.932,-0.1391140413996438
6.934,-0.12475419923869789
6.936,-0.11287727423251433
6.938,-0.10311975288724583
6.94,-0.09517231755041429
6.942,-0.08874854099612411
6.944,-0.08358488642504401
6.946,-0.07944070746441996
6.948,-0.07609824816807145
6.95,-0.0733626430163951
6.952,-0.07106191691635722
6.954,-0.06904698520150052
6.956,-0.0671916536319403
6.958,-0.06539261839436804
6.96,-0.06356946610204676
6.962,-0.06166467379481518
6.964,-0.059643608939084304
6.966,-0.057494529427841654
6.968,-0.05522858358064646
6.97,-0.052879810143633056
6.972,-0.05049469442618976
6.974,-0.048010431972757055
6.976,-0.04539384548902212
6.978,-0.04263590213563733
6.98,-0.03972806786441859
6.982,-0.03666230741835071
6.984,-0.03343108433157989
6.986,-0.030027360929419083
6.988,-0.026444598328344435
6.99,-0.022676756436001692
6.992,-0.01871829395119774
6.994,-0.014564168363905625
6.996,-0.010209835955261773
6.998,-0.005651251797573337
7.0,-0.000884869754307219
7.002,0.004092357519902962
7.004,0.009282978579260567
7.006,0.014689043186797198
7.008,0.020312102314385634
7.01,0.02615320814273195
7.012,0.03221291406137932
7.014,0.03849127466869779
7.016,0.04498784577190049
7.018,0.05170168438703244
7.02,0.05863134873897685
7.022,0.06577829264390819
7.024,0.07316358195047734
7.026,0.08077839692744802
7.028,0.08860700440487994
7.03,0.09663341809738071
7.032,0.10484138692903708
7.034,0.11321439503340076
7.036,0.12173566175349615
7.038,0.13038814164180476
7.04,0.13915452446028834
7.042,0.14801723518037285
7.044,0.15695843398295742
7.046,0.1659600162583978
7.048,0.17500361754801105
7.05,0.18407065234170067
7.052,0.19314229317303636
7.054,0.20219944798330627
7.056,0.21122275992327935
7.058,0.22019260735318885
7.06,0.2290891038427406
7.062,0.2378920981710976
7.064,0.24658117432690327
7.066,0.2551356515082649
7.068,0.2635345841227635
7.07,0.27175676178743613
7.072,0.2797807093288005
7.074,0.28758468678283866
7.076,0.29514668939500566
7.078,0.30244444762021394
7.08,0.3094554271228551
7.082,0.3161568287767861
7.084,0.3225255886653352
7.086,0.32853837808129094
7.088,0.3341716035269188
7.09,0.3394014067139499
7.092,0.34420366456358703
7.094,0.348553989206494
7.096,0.35242772798280986
7.098,0.355799963442141
7.1,0.3586455133435631
7.102,0.36094123406434925
7.104,0.3626810628317031
7.106,0.3638672938062516
7.108,0.3645031441199697
7.11,0.36459272031064205
7.112,0.3641410183218648
7.114,0.3631539235030445
7.116,0.36163821060939677
7.118,0.3596015438019505
7.12,0.3570524766475421
7.122,0.3540004521188204
7.124,0.35045579531584825
7.126,0.34642936814545155
7.128,0.3419324189401916
7.13,0.33697704688911084
7.132,0.3315762405870603
7.134,0.32574387803470817
7.136,0.3194947266385264
7.138,0.3128444432107995
7.14,0.30580957396961933
7.142,0.2984075545388976
7.144,0.29065670994834697
7.146,0.28257625463349406
7.148,0.2741862924356716
7.15,0.26550781660203493
7.152,0.25656270978553747
7.154,0.24737374404494764
7.156,0.23796458084483987
7.158,0.22835977105561178
7.16,0.21858475495345867
7.162,0.20866586222039057
7.164,0.19863031194422326
7.166,0.1885062126185971
7.168,0.17832256214294837
7.17,0.16810924782252934
7.172,0.1578970463684022
7.174,0.14771762389743512
7.176,0.13760353593232036
7.178,0.1275882274015471
7.18,0.11770569867926461
7.182,0.10796051849202473
7.184,0.09835299319091997
7.186,0.08889642399744628
7.188,0.07960332414652155
7.19,0.07048541888647598
7.192,0.06155364547906926
7.194,0.052818153199465624
7.196,0.04428830333625028
7.198,0.035972669191421634
7.2,0.027879036080406434
7.202,0.02001440133203656
7.204,0.01238497428856538
7.206,0.004996176305659043
7.208,-0.002147359247588761
7.21,-0.009041786988677924
7.212,-0.015684049521687757
7.214,-0.022071877437283706
7.216,-0.02820378931270552
7.218,-0.03407909171178464
7.22,-0.03969787918493304
7.222,-0.045061034269147884
7.224,-0.05017022692420427
7.226,-0.05502779658334603
7.228,-0.05963660674324357
7.23,-0.06400027325325226
7.232,-0.06812319994930456
7.234,-0.07201057865392183
7.236,-0.07566838917620708
7.238,-0.0791033993118474
7.24,-0.08232316484310839
7.242,-0.08533602953884371
7.244,-0.08815112515448813
7.246,-0.09077837143206116
7.248,-0.09322847611230327
7.25,-0.09551296419818378
7.252,-0.09764424078637421
7.254,-0.09963551702814327
7.256,-0.10148822301110119
7.258,-0.10319933404441034
7.26,-0.10477607137849451
7.262,-0.10622546137767665
7.264,-0.10755433537075469
7.266,-0.10876932965100522
7.268,-0.10987688547618099
7.27,-0.11088324906851198
7.272,-0.11179447161470317
7.274,-0.1126164092659381
7.276,-0.1133547231378763
7.278,-0.11401487931065457
7.28,-0.11460214882888542
7.282,-0.11512160770165886
7.284,-0.11557813690254176
7.286,-0.11597642236957742
7.288,-0.11632095500528555
7.29,-0.11661603067666336
7.292,-0.11686575021518415
7.294,-0.11707401941679868
7.296,-0.1172445490419334
7.298,-0.1173808548154923
7.3,-0.1174862574268561
7.302,-0.11756388252988191
7.304,-0.1176166607429038
7.306,-0.11764732764873233
7.308,-0.11765842379465505
7.31,-0.11765229469243652
7.312,-0.11763109081831719
7.314,-0.11759676761301509
7.316,-0.1175510854817246
7.318,-0.11749560979411677
7.32,-0.11743171088433968
7.322,-0.11736056405101791
7.324,-0.11728314955628694
7.326,-0.11720023100678198
7.328,-0.11711229951763315
7.33,-0.1170196338293999
7.332,-0.11692231764711859
7.334,-0.11682023964030239
7.336,-0.11671121610599046
7.338,-0.11658331671720143
7.34,-0.11643752826189564
7.342,-0.11627733178003662
7.344,-0.11610601183109599
7.346,-0.1159266564940516
7.348,-0.11574215736738942
7.35,-0.11555520956910156
7.352,-0.1153683117366884
7.354,-0.11518376602715712
7.356,-0.1150036781170217
7.358,-0.11482995720230366
7.36,-0.11466431599853194
7.362,-0.11450827074074263
7.364,-0.11436314118347855
7.366,-0.11423005060079004
7.368,-0.11410992578623494
7.37,-0.11400349705287782
7.372,-0.11391129823329046
7.374,-0.11383366667955232
7.376,-0.11377074326324962
7.378,-0.11372247237547622
7.38,-0.11368860192683239
7.382,-0.11366868334742622
7.384,-0.11366207158687328
7.386,-0.11366792511429573
7.388,-0.11368520591832312
7.39,-0.1137126795070921
7.392,-0.11374891490824712
7.394,-0.11379228466893893
7.396,-0.11384096485582607
7.398,-0.1138929350550742
7.4,-0.11394597837235636
7.402,-0.11399768143285219
7.404,-0.11404543438124906
7.406,-0.11408643088174138
7.408,-0.11411766811803108
7.41,-0.11413594679332653
7.412,-0.11413787113034397
7.414,-0.11411984887130672
7.416,-0.11407809127794526
7.418,-0.11400861313149714
7.42,-0.11390723273270723
7.422,-0.1137695719018274
7.424,-0.11359105597861746
7.426,-0.11336692805707199
7.428,-0.11309231841385924
7.43,-0.11276219131144624
7.432,-0.11237131457573826
7.434,-0.11191425955214886
7.436,-0.11138540110559794
7.438,-0.11077891762051306
7.44,-0.11008879100082802
7.442,-0.1093088066699857
7.444,-0.10843255357093454
7.446,-0.10745342416613098
7.448,-0.10636461443753739
7.45,-0.10516238643117647
7.452,-0.10386295010516927
7.454,-0.10243796183500185
7.456,-0.10085061374044538
7.458,-0.09906694441757809
7.46,-0.09705583893878095
7.462,-0.09478902885274004
7.464,-0.09224109218444497
7.466,-0.08938945343519342
7.468,-0.08621438358258476
7.47,-0.08269900008052357
7.472,-0.07882926685921761
7.474,-0.07459399432518468
7.476,-0.06998483936124195
7.478,-0.0649963053265129
7.48,-0.05962574205642322
7.482,-0.053873345862710656
7.484,-0.04774215953341068
7.486,-0.04123807233286518
7.488,-0.034369820001718086
7.49,-0.027148984756927244
7.492,-0.0195899952917458
7.494,-0.011710126775734768
7.496,-0.0035295008547557554
7.498,0.004928914349013099
7.5,0.013639304237100773
7.502,0.022573007734727833
7.504,0.031698517290813584
7.506,0.04098147887796112
7.508,0.05038469199248093
7.51,0.059873503911980964
7.512,0.06942573287996862
7.514,0.07895687163148528
7.516,0.08837676236134002
7.518,0.09760038839022023
7.52,0.10654787416470055
7.522,0.1151444852572253
7.524,0.12332062836613444
7.526,0.13101184487800796
7.528,0.13815875290254376
7.53,0.1447070745969267
7.532,0.15060767279931953
7.534,0.1558165514737644
7.536,0.16029485571018806
7.538,0.1640088717243938
7.54,0.1669300268580744
7.542,0.16903488957880292
7.544,0.17030516948003577
7.546,0.17072771728111039
7.548,0.17029452482724886
7.55,0.16900272508955555
7.552,0.16685459216501597
7.554,0.16385754127650182
7.556,0.1600241287727649
7.558,0.15537087839973554
7.56,0.1499008174511107
7.562,0.1436732866797293
7.564,0.13676663144019416
7.566,0.12925679773904689
7.568,0.12121733223476143
7.57,0.11271938223775986
7.572,0.10383169571038983
7.574,0.09462062126693906
7.576,0.08515010817362792
7.578,0.07548170634862558
7.58,0.06567456636202566
7.582,0.05578543943586224
7.584,0.045868677444101724
7.586,0.035976232912660416
7.588,0.026157659019377777
7.59,0.016460109594034582
7.592,0.006928339118343547
7.594,-0.00239529727403286
7.596,-0.011470843797508715
7.598,-0.02026074401455668
7.6,-0.02872984083571723
7.602,-0.036845376519582654
7.604,-0.04457699267281977
7.606,-0.051896730250155426
7.608,-0.05871804688711185
7.61,-0.06499388342972587
7.612,-0.07076684236750702
7.614,-0.07608130084987079
7.616,-0.08098338447520809
7.618,-0.08552096729087616
7.62,-0.08974367179321181
7.622,-0.09370286892752337
7.624,-0.0974516780880931
7.626,-0.10104496774504193
7.628,-0.1045393665838166
7.63,-0.10799326219707818
7.632,-0.11146679099057083
7.634,-0.11502183781900718
7.636,-0.11872203598607753
7.638,-0.12263276724444407
7.64,-0.12682116179574343
7.642,-0.13135609829058031
7.644,-0.13630820382853748
7.646,-0.14174985395816947
7.648,-0.1477551726770065
7.65,-0.15440003243154343
7.652,-0.16176206294892725
7.654,-0.16992071884474746
7.656,-0.17895724236075725
7.658,-0.1889546245060853
7.66,-0.199997604738846
7.662,-0.21217267096612236
7.664,-0.22556805954397705
7.666,-0.240273695173003
7.668,-0.2560043244359375
7.67,-0.2712700013700795
7.672,-0.28445865992463837
7.674,-0.29410930784015404
7.676,-0.29891202664853483
7.678,-0.2977079716730304
7.68,-0.28948937202823943
7.682,-0.27339953062009986
7.684,-0.24873282414592154
7.686,-0.2149347030943437
7.688,-0.17160169174535925
7.69,-0.11848138817028395
7.692,-0.05547246423185545
7.694,0.017375334415909157
7.696,0.09986118832762188
7.698,0.1916332042665895
7.7,0.2924278012112905
7.702,0.40289609159444834
7.704,0.5177663823143789
7.706,0.6310287952532694
7.708,0.7374329558327557
7.71,0.8324879930142294
7.712,0.9124625392986306
7.714,0.9743847307265248
7.716,1.0160422068779973
7.718,1.0359821108728244
7.72,1.0335110893703496
7.722,1.0086952925695019
7.724,0.9623603742088503
7.726,0.8960914934482332
7.728,0.8122333949319495
7.73,0.7138904386797985
7.732,0.605068484465678
7.734,0.49067064336776817
7.736,0.37442626031605875
7.738,0.25953128690646754
7.74,0.148777174405011
7.742,0.0445508737474964
7.744,-0.051165164460270286
7.746,-0.13679298994257422
7.748,-0.21115915275364175
7.75,-0.2734947032778708
7.752,-0.32343519222967254
7.754,-0.3610206706535274
7.756,-0.38669568992392084
7.758,-0.4013093017454468
7.76,-0.40611505815273363
7.762,-0.40277101151046046
7.764,-0.3929734684123517
7.766,-0.3774063959434923
7.768,-0.3575545015013265
7.77,-0.3348494849237358
7.772,-0.31055688120945946
7.774,-0.28577606051803384
7.776,-0.2614402281698322
7.778,-0.23831642464604494
7.78,-0.21700552558872035
7.782,-0.19794224180070244
7.784,-0.18139511924567306
7.786,-0.16746653904813566
7.788,-0.15609271749343864
7.79,-0.1470437060277387
7.792,-0.13992339125802605
7.794,-0.13416949495211655
7.796,-0.12924234054996123
7.798,-0.1251509132177091
7.8,-0.12176138522579336
7.802,-0.11893303846024698
7.804,-0.1165373117201618
7.806,-0.11445780071768218
7.808,-0.11259025807800918
7.81,-0.11084259333939925
7.812,-0.10913487295316654
7.814,-0.10739932028367875
7.816,-0.10558031560836006
7.818,-0.10363439611768982
7.82,-0.10153025591520533
7.822,-0.09924874601749738
7.824,-0.0967828743542131
7.826,-0.09413780574940916
7.828,-0.09133085874033646
7.83,-0.08839150197646824
7.832,-0.08534390653104906
7.834,-0.08213787136314536
7.836,-0.07875674889420517
7.838,-0.0751913179183506
7.84,-0.07143308628887216
7.842,-0.06747429091822528
7.844,-0.06330789777803693
7.846,-0.05892760189909618
7.848,-0.054327827371360035
7.85,-0.049503727343950386
7.852,-0.044451184027703095
7.854,-0.03916681360036399
7.856,-0.03364797643745907
7.858,-0.02789276488340736
7.86,-0.02190000034180297
7.862,-0.015669233275398847
7.864,-0.00920074320611718
7.866,-0.0024955387150440295
7.868,0.004444642557559339
7.87,0.011617333912273249
7.872,0.01901933959050906
7.874,0.026646734774514298
7.876,0.03449486558735969
7.878,0.04255834909295976
7.88,0.050831073296058474
7.882,0.05930619714223716
7.884,0.06799678459975315
7.886,0.07694223627267435
7.888,0.08611537630097225
7.89,0.09548563080567747
7.892,0.10502298181739846
7.894,0.11469796727634535
7.896,0.12448168103231426
7.898,0.1343457728446953
7.9,0.1442624483824552
7.902,0.1542044692241639
7.904,0.16414515285797612
7.906,0.1740583726816415
7.908,0.18391855800248563
7.91,0.19370069403743728
7.912,0.20338032191301084
7.914,0.2129335386653141
7.916,0.2223369972400327
7.918,0.2315679064924543
7.92,0.24060403118745166
7.922,0.2494236919994923
7.924,0.25800576551262083
7.926,0.26632968421088693
7.928,0.2743753632933418
7.93,0.28212302439235276
7.932,0.2895533919450027
7.934,0.2966477462979739
7.936,0.30338792370753576
7.938,0.30975631633954664
7.94,0.31573587226945765
7.942,0.32131009548230194
7.944,0.3264630458727099
7.946,0.33117933924490006
7.948,0.33544414731268085
7.95,0.3392431976994464
7.952,0.3425627739381858
7.954,0.3453897154714758
7.956,0.3477114176514838
7.958,0.3495158317399645
7.96,0.35079146490826496
7.962,0.3515273802373214
7.964,0.351713196717659
7.966,0.3513390892493936
7.968,0.3503957886422306
7.97,0.34887458161546475
7.972,0.34674075723218234
7.974,0.3439612250451736
7.976,0.3405689038922085
7.978,0.33659732980274676
7.98,0.33207937930911396
7.982,0.3270472694465094
7.984,0.32153255775299483
7.986,0.3155661422695009
7.988,0.30917826153982336
7.99,0.30239849461063517
7.992,0.2952557610314676
7.994,0.28777832085472294
7.996,0.2799937746356677
7.998,0.2719290634324469
8.0,0.2636104688060628
8.002,0.2550636128203847
8.004,0.24631345804216595
8.006,0.2373843075409996
8.008,0.22829980488937057
8.01,0.219082934162632
8.012,0.20975601993897952
8.014,0.20034072729951063
8.016,0.19085806182815607
8.018,0.18132836961174065
8.02,0.17177133723995677
8.022,0.16220599180533835
8.024,0.15265070090331379
8.026,0.14312317263217855
8.028,0.13364053405540108
8.03,0.12421969079271696
8.032,0.11487704092387088
8.034,0.10562832318131729
8.036,0.09648861680037787
8.038,0.08747234151921734
8.04,0.07859325757889336
8.042,0.06986446572333034
8.044,0.06129840719929773
8.046,0.052906863756463106
8.048,0.044700957647332056
8.05,0.0366911516273001
8.052,0.028887248954630265
8.054,0.021298394362360244
8.056,0.013933106234354953
8.058,0.006799284012747521
8.06,-9.582988514325597e-05
8.062,-0.006745652539105586
8.064,-0.013144260526083881
8.066,-0.0192863899201368
8.068,-0.02516743629245661
8.07,-0.030783454711382857
8.072,-0.03613115974237156
8.074,-0.041206767185814674
8.076,-0.04601101909219024
8.078,-0.05055277391100508
8.08,-0.054840969243661344
8.082,-0.05888436851967924
8.084,-0.06269156099670989
8.086,-0.06627096176054452
8.088,-0.0696308117250941
8.09,-0.07277917763240067
8.092,-0.07572395205264432
8.094,-0.07847285338412473
8.096,-0.08103342585328137
8.098,-0.08341303951467671
8.1,-0.08561889025100375
8.102,-0.08765799977309155
8.104,-0.08953721561989311
8.106,-0.09126321115849205
8.108,-0.09284248558410685
8.11,-0.09428136392007981
8.112,-0.095585997017889
8.114,-0.09676236155713845
8.116,-0.09781626004556279
8.118,-0.0987533208190296
8.12,-0.09957899804153336
8.122,-0.10029857170519939
8.124,-0.1009171476302847
8.126,-0.10143965746517407
8.128,-0.10187092920319603
8.13,-0.10221628271695492
8.132,-0.10248123015749645
8.134,-0.10267111330900122
8.136,-0.10279109978377828
8.138,-0.1028461830222677
8.14,-0.10284118229303957
8.142,-0.10278074269279336
8.144,-0.1026693351463594
8.146,-0.10251125640669773
8.148,-0.10231062905489871
8.15,-0.10207140150018224
8.152,-0.10179734797989848
8.154,-0.10149206855952848
8.156,-0.1011589891326821
8.158,-0.10080136142110005
8.16,-0.1004222629746529
8.162,-0.10002459717134132
8.164,-0.09961109321729636
8.166,-0.09918430614677795
8.168,-0.09874661682217782
8.17,-0.09830023193401674
8.172,-0.0978471840009455
8.174,-0.09738933136974547
8.176,-0.0969283582153273
8.178,-0.0964657745407327
8.18,-0.09600291617713304
8.182,-0.09554094478382916
8.184,-0.09508084784825288
8.186,-0.09462343868596598
8.188,-0.09416935644065946
8.19,-0.09371739029030746
8.192,-0.09326388366139544
8.194,-0.09281131830820252
8.196,-0.0923624668662899
8.198,-0.09191996535267233
8.2,-0.09148631316581993
8.202,-0.09106387308565622
8.204,-0.09065487127355962
8.206,-0.09026139727236368
8.208,-0.08988540400635472
8.21,-0.0895287077812745
8.212,-0.08919298828431979
8.214,-0.08887978858414006
8.216,-0.08859051513084058
8.218,-0.08832643775598013
8.22,-0.08808868967257244
8.222,-0.087878267475086
8.224,-0.08769603113944241
8.226,-0.08754270402301854
8.228,-0.0874188240943328
8.23,-0.08732394022596864
8.232,-0.08725673938984693
8.234,-0.08721574881647919
8.236,-0.08719935911783248
8.238,-0.08720582428732818
8.24,-0.08723326169984102
8.242,-0.08727965211170159
8.244,-0.08734283966069388
8.246,-0.08742053186605625
8.248,-0.0875102996284824
8.25,-0.08760957723011904
8.252,-0.08771566233456839
8.254,-0.08782571598688671
8.256,-0.0879367591854757
8.258,-0.08804564729358659
8.26,-0.08814908445631561
8.262,-0.08824363808936575
8.264,-0.08832573898989492
8.266,-0.08839168133651482
8.268,-0.08843762268929138
8.27,-0.0884595839897461
8.272,-0.08845344956085344
8.274,-0.08841496710704262
8.276,-0.08833974771419868
8.278,-0.08822326584965859
8.28,-0.08806085936221622
8.282,-0.08784772948211733
8.284,-0.08757894082106377
8.286,-0.08724942137221264
8.288,-0.0868561917701013
8.29,-0.08641874440149364
8.292,-0.08591955012021253
8.294,-0.0853298901152657
8.296,-0.08462239134066994
8.298,-0.08377102651544101
8.3,-0.08275111412360432
8.302,-0.08153931841418981
8.304,-0.08011364940122681
8.306,-0.07845346286375493
8.308,-0.0765394603458186
8.31,-0.07435368915646094
8.312,-0.07187954236973797
8.314,-0.06910175882470093
8.316,-0.0660064231254137
8.318,-0.0625809656409455
8.32,-0.058814162505359875
8.322,-0.05469613561773536
8.324,-0.05021835264215603
8.326,-0.04537362700769811
8.328,-0.04015613520958743
8.33,-0.03456208013276747
8.332,-0.02858989926437631
8.334,-0.022239435732318173
8.336,-0.01551187842948514
8.338,-0.008409762013790643
8.34,-0.0009369669081543946
8.342,0.006901280699519749
8.344,0.015098408856295854
8.346,0.02364649984426152
8.348,0.03253629018047881
8.35,0.041780848851780975
8.352,0.051413571354140486
8.354,0.061345734189147995
8.356,0.07148315894789384
8.358,0.08173574701647099
8.36,0.0920174795759118
8.362,0.10224641760226028
8.364,0.1123447018665084
8.366,0.12223855293462373
8.368,0.1318582711675756
8.37,0.14113823672128184
8.372,0.1500169095466378
8.374,0.15843682938953593
8.376,0.16634461579081536
8.378,0.17369096808631812
8.38,0.18043066540684016
8.382,0.18652256667815612
8.384,0.19192961062103042
8.386,0.19661881575118795
8.388,0.20056128037932977
8.39,0.20373218261114334
8.392,0.20611078034727884
8.394,0.2076804112833718
8.396,0.20842849291002524
8.398,0.20834652251282232
8.4,0.20743007717231898
8.402,0.20567881376404784
8.404,0.20309646895851885
8.406,0.1996908592212105
8.408,0.19547388081258746
8.41,0.19046150978807527
8.412,0.18466527575337688
8.414,0.17814365155495632
8.416,0.17098784736010172
8.418,0.16328519653761187
8.42,0.15511912565213093
8.422,0.14656915446412305
8.424,0.13771089592992564
8.426,0.12861605620168656
8.428,0.11935243600194191
8.43,0.10998412509386822
8.432,0.10057170381319472
8.434,0.09117189381572986
8.436,0.08183750995312533
8.438,0.0726174602728499
8.44,0.06355674601824896
8.442,0.05469646162847677
8.444,0.04607379473855598
8.446,0.03772202617935055
8.448,0.02967052997754492
8.45,0.021944773355695696
8.452,0.014566316732173542
8.454,0.0075528137212136845
8.456,0.0009180111024846734
8.458,-0.005328299017382156
8.46,-0.011180376111464746
8.462,-0.016636413721257886
8.464,-0.021698512192428687
8.466,-0.026372678674782376
8.468,-0.030668827122298924
8.47,-0.03460077829310264
8.472,-0.03813497545489742
8.474,-0.04124184894242714
8.476,-0.04400946055566727
8.478,-0.04653016140570408
8.48,-0.04889879981035222
8.482,-0.051212721294137925
8.484,-0.05357176858831771
8.486,-0.05607828163086279
8.488,-0.05883709756646448
8.49,-0.06195555074654353
8.492,-0.06554347272923412
8.494,-0.06971319227938984
8.496,-0.07457953536859727
8.498,-0.0802598251751471
8.5,-0.08687388208407087
8.502,-0.09454402368710582
8.504,-0.10339506478270702
8.506,-0.11355431737607467
8.508,-0.125151590679107
8.51,-0.13831919111041838
8.512,-0.15313473652201742
8.514,-0.16897281253447252
8.516,-0.1847901914360534
8.518,-0.19955961790897456
8.52,-0.21227464904519405
8.522,-0.22194965434644204
8.524,-0.22761981572415202
8.526,-0.22834112749951144
8.528,-0.22319039635915222
8.53,-0.21126508485198536
8.532,-0.1916829601874918
8.534,-0.1635824992254755
8.536,-0.12612299123550985
8.538,-0.07848453789680324
8.54,-0.0198636634438705
8.542,0.05118512379248542
8.544,0.13389581730890598
8.546,0.22602652492230024
8.548,0.3252089745955651
8.55,0.42894851443703386
8.552,0.5346241127007038
8.554,0.6394883577865357
8.556,0.7406674582398882
8.558,0.8351612427518117
8.56,0.9198431601592877
8.562,0.9914602794446631
8.564,1.0466332897362387
8.566,1.0818565003077953
8.568,1.093497840578865
8.57,1.0783761306905175
8.572,1.0381219246090574
8.574,0.9767116104732846
8.576,0.8979624568708151
8.578,0.8055127823867788
8.58,0.7028219556032751
8.582,0.5931703950999161
8.584,0.47965956945360694
8.586,0.3652119972382201
8.588,0.25257124702519734
8.59,0.1443019373832447
8.592,0.042789736878050426
8.594,-0.04975863592705793
8.596,-0.1313154124718256
8.598,-0.2003227411532876
8.6,-0.25693064091911894
8.602,-0.3017800769496293
8.604,-0.33556448624248797
8.606,-0.35903660208216837
8.608,-0.3730084540399665
8.61,-0.378351367973877
8.612,-0.3759959660286942
8.614,-0.36693216663596107
8.616,-0.35220918451400934
8.618,-0.3329355306678941
8.62,-0.31027901238947325
8.622,-0.2854667332573821
8.624,-0.2597850931369531
8.626,-0.234579788180373
8.628,-0.2112413325561852
8.63,-0.1903585601849067
8.632,-0.17178190602938773
8.634,-0.15542880529102304
8.636,-0.1411991437666869
8.638,-0.1289752576624441
8.64,-0.11862193359352564
8.642,-0.10998640858440095
8.644,-0.10289837006870334
8.646,-0.09716995588928776
8.648,-0.0925957542982024
8.65,-0.08895280395668172
8.652,-0.08600059393517054
8.654,-0.08348106371330939
8.656,-0.08112162689944796
8.658,-0.07881926842214727
8.66,-0.07657772209663706
8.662,-0.07436453421958492
8.664,-0.07214961860776457
8.666,-0.06990526662760133
8.668,-0.06760614719518207
8.67,-0.06522930677625113
8.672,-0.0627541693862029
8.674,-0.06016253659009674
8.676,-0.05743858750264029
8.678,-0.05456887878820383
8.68,-0.05154234466081526
8.682,-0.04835029688415056
8.684,-0.044986424771551056
8.686,-0.04144679518601434
8.688,-0.037729852540185675
8.69,-0.03383641879637952
8.692,-0.029769693466553997
8.694,-0.025530575205323466
8.696,-0.021110038276939014
8.698,-0.016499134439310573
8.7,-0.01168991892365882
8.702,-0.006675449798592425
8.704,-0.001449787970095106
8.706,0.003992002818442899
8.708,0.009653855986262583
8.71,0.015538702115201891
8.712,0.021648468949710876
8.714,0.02798408139686611
8.716,0.03454546152633544
8.718,0.04133152857042098
8.72,0.04834019892401913
8.722,0.05556838614463755
8.724,0.06301200095241498
8.726,0.070665951230083
8.728,0.07852414202298456
8.73,0.08657954545556536
8.732,0.09482475486866071
8.734,0.1032516887872861
8.736,0.111851265816426
8.738,0.12061340172367525
8.74,0.12952700943926454
8.742,0.1385799990560133
8.744,0.14775927782935136
8.746,0.15705075017734635
8.748,0.16643931768064324
8.75,0.17590887908253428
8.752,0.18544233028889628
8.754,0.195021564368219
8.756,0.2046274715516296
8.758,0.21423993923284088
8.76,0.22383785196817818
8.762,0.2334044192444968
8.764,0.24295030706119952
8.766,0.2524480955910975
8.768,0.2618634349329686
8.77,0.2711632752620806
8.772,0.2803158668302169
8.774,0.28929075996562514
8.776,0.2980588050730434
8.778,0.3065921526337239
8.78,0.31486425320537736
8.782,0.322849857422235
8.784,0.33052501599499495
8.786,0.33786707971084673
8.788,0.3448546994334899
8.79,0.35146782610309324
8.792,0.35768771073631744
8.794,0.36349690442632965
8.796,0.3688792583427649
8.798,0.3738199237317688
8.8,0.3783053519159625
8.802,0.3823232942944576
8.804,0.3858628023428675
8.806,0.3889142276132839
8.808,0.39146922173429
8.81,0.39352073641096663
8.812,0.395063023424875
8.814,0.39609163463407354
8.816,0.39660342197310644
8.818,0.3965965374530088
8.82,0.3960704331613066
8.822,0.39502586126201444
8.824,0.39346487399563945
8.826,0.391390823679174
8.828,0.38880836270610736
8.83,0.3857234187249065
8.832,0.38214281464763
8.834,0.3780686572994721
8.836,0.3734664303473219
8.838,0.36835547806271174
8.84,0.36276817980369386
8.842,0.3567362372174165
8.844,0.35029067424015986
8.846,0.343461837097293
8.848,0.33627939430331405
8.85,0.3287723366618331
8.852,0.3209689772655514
8.854,0.3128969514963014
8.856,0.30458321702502833
8.858,0.29605405381176547
8.86,0.28733503726413784
8.862,0.278450842865479
8.864,0.2694253586336915
8.866,0.26028179409901114
8.868,0.25104268108075994
8.87,0.2417298736873964
8.872,0.23236454831649073
8.874,0.22296720365469794
8.876,0.21355766067781942
8.878,0.2041550626507332
8.88,0.19477787512745434
8.882,0.18544388595110933
8.884,0.17617020525390995
8.886,0.1669732654572052
8.888,0.1578688212714554
8.89,0.1488719496962065
8.892,0.13999705002014953
8.894,0.13125784382105354
8.896,0.12266737496582367
8.898,0.11423800961047574
8.9,0.1059814362001137
8.902,0.09790866546897606
8.904,0.09003003044041205
8.906,0.08235518642686047
8.908,0.0748931110299002
8.91,0.06765210414019307
8.912,0.06063978793753342
8.914,0.05386310689082572
8.916,0.04732832775806754
8.918,0.04104103958638609
8.92,0.0350061537120191
8.922,0.02922790376029921
8.924,0.023711121274795917
8.926,0.018471810295274886
8.928,0.013506319261869803
8.93,0.008805007007906148
8.932,0.004358680607478873
8.934,0.000158669830617862
8.936,-0.0038035219497235687
8.938,-0.007536241232345833
8.94,-0.011047684387775935
8.942,-0.014345897658297142
8.944,-0.017438777157924978
8.946,-0.02033406887241655
8.948,-0.02303936865928044
8.95,-0.025562122247757592
8.952,-0.02790962523883237
8.954,-0.030089023105237995
8.956,-0.03210731119144007
8.958,-0.03397133471365513
8.96,-0.03568778875983481
8.962,-0.03726321828967453
8.964,-0.03870401813461523
8.966,-0.04001643299783395
8.968,-0.04120655745425593
8.97,-0.04228033595054358
8.972,-0.04324356280510189
8.974,-0.044101882208081235
8.976,-0.0448607882213701
8.978,-0.04552562477860037
8.98,-0.04610158568514665
8.982,-0.04659371461812409
8.984,-0.0470069051263916
8.986,-0.04734590063054841
8.988,-0.04761529442293598
8.99,-0.04781952966763851
8.992,-0.047962899400481644
8.994,-0.04804954652903329
8.996,-0.048083463832602674
8.998,-0.0480684939622419
9.0,-0.04800832944074437
9.002,-0.04790651266264568
9.004,-0.047766435894223275
9.006,-0.047591341273496644
9.008,-0.04738432081022795
9.01,-0.04714831638591978
9.012,-0.046886119753818095
9.014,-0.04660037253891009
9.016,-0.04629356623792509
9.018,-0.04596804221933461
9.02,-0.045625991723352036
9.022,-0.04526945586193236
9.024,-0.04490032561877289
9.026,-0.04452034184931307
9.028,-0.04413109528073395
9.03,-0.04373402710568005
9.032,-0.04333049963668207
9.034,-0.04292186311516178
9.036,-0.042509333471969474
9.038,-0.042093976509696325
9.04,-0.041676707902675574
9.042,-0.041258293196983445
9.044,-0.040839347810436466
9.046,-0.04042033703259502
9.048,-0.04000157602475971
9.05,-0.039583229819973934
9.052,-0.03916531332302395
9.054,-0.0387476913104359
9.056,-0.03833007843047953
9.058,-0.03791203920316636
9.06,-0.03749298796952613
9.062,-0.03707211020327399
9.064,-0.036641941732811746
9.066,-0.03619913509144951
9.068,-0.03574691818425096
9.07,-0.03528828195112426
9.072,-0.03482598036682338
9.074,-0.03436253044094801
9.076,-0.033900212217941816
9.078,-0.03344106877709485
9.08,-0.032986906232541385
9.082,-0.03253929373326173
9.084,-0.03209956346308195
9.086,-0.0316688106406712
9.088,-0.0312478935195459
9.09,-0.030837433388067485
9.092,-0.030437814569441307
9.094,-0.030049184421719465
9.096,-0.0296714533377979
9.098,-0.029304294745418943
9.1,-0.028947145107170225
9.102,-0.028599203920483117
9.104,-0.0282594337176356
9.106,-0.02792656006575094
9.108,-0.027599071566796512
9.11,-0.027275219857586158
9.112,-0.026953019609777758
9.114,-0.026630248529875406
9.116,-0.026304447359228336
9.118,-0.025972919874030116
9.12,-0.025632732885320524
9.122,-0.025280716238984584
9.124,-0.024913462815751516
9.126,-0.024527328531196976
9.128,-0.024118432335740833
9.13,-0.023682656240926102
9.132,-0.02321569651107816
9.134,-0.02271317056961731
9.136,-0.02217048929418526
9.138,-0.021582826597269296
9.14,-0.020945119426199837
9.142,-0.02025206776315528
9.144,-0.019498134625156302
9.146,-0.018677546064071196
9.148,-0.01778429116661337
